752.0,744.0,746.0,743.0
745.0,741.0,741.0,740.0
732.0,739.0,741.0,739.0
734.0,738.0,738.0,735.0
736.0,737.0,737.0,732.0
738.0,737.0,735.0,732.0
741.0,737.0,737.0,732.0
745.0,740.0,740.0,736.0
749.0,742.0,744.0,740.0
753.0,745.0,747.0,746.0
755.0,748.0,749.0,748.0
759.0,751.0,754.0,751.0
758.0,750.0,755.0,751.0
747.0,751.0,755.0,754.0
748.0,748.0,753.0,755.0
748.0,747.0,751.0,754.0
746.0,744.0,748.0,750.0
745.0,743.0,745.0,748.0
744.0,741.0,741.0,743.0
745.0,739.0,736.0,738.0
744.0,738.0,734.0,735.0
737.0,736.0,733.0,731.0
736.0,737.0,733.0,729.0
739.0,739.0,736.0,729.0
744.0,742.0,742.0,732.0
746.0,744.0,746.0,733.0
750.0,747.0,749.0,737.0
753.0,749.0,751.0,744.0
754.0,751.0,754.0,751.0
755.0,751.0,757.0,756.0
753.0,750.0,755.0,755.0
752.0,749.0,752.0,748.0
750.0,746.0,748.0,742.0
748.0,744.0,745.0,742.0
745.0,742.0,742.0,738.0
744.0,741.0,741.0,735.0
742.0,738.0,738.0,734.0
741.0,738.0,736.0,736.0
739.0,737.0,734.0,735.0
739.0,738.0,734.0,739.0
742.0,740.0,738.0,746.0
746.0,743.0,742.0,750.0
748.0,745.0,745.0,749.0
751.0,746.0,749.0,751.0
754.0,750.0,753.0,753.0
755.0,751.0,754.0,754.0
755.0,752.0,756.0,756.0
753.0,750.0,752.0,755.0
752.0,748.0,750.0,754.0
749.0,745.0,746.0,749.0
747.0,743.0,746.0,743.0
745.0,741.0,745.0,739.0
743.0,740.0,744.0,734.0
742.0,740.0,743.0,728.0
740.0,738.0,741.0,726.0
739.0,736.0,740.0,728.0
741.0,738.0,740.0,733.0
744.0,741.0,743.0,741.0
747.0,743.0,744.0,746.0
750.0,747.0,747.0,748.0
753.0,748.0,746.0,749.0
755.0,751.0,748.0,753.0
755.0,752.0,749.0,754.0
756.0,751.0,751.0,757.0
750.0,749.0,750.0,757.0
750.0,747.0,750.0,753.0
750.0,744.0,746.0,750.0
749.0,743.0,744.0,745.0
748.0,740.0,742.0,743.0
745.0,739.0,739.0,739.0
737.0,739.0,737.0,737.0
736.0,737.0,735.0,735.0
737.0,737.0,735.0,735.0
740.0,738.0,737.0,736.0
744.0,743.0,742.0,740.0
746.0,743.0,742.0,744.0
746.0,747.0,747.0,749.0
750.0,750.0,751.0,752.0
752.0,751.0,753.0,754.0
755.0,751.0,753.0,755.0
754.0,750.0,751.0,753.0
753.0,749.0,749.0,751.0
749.0,747.0,748.0,748.0
748.0,744.0,745.0,746.0
744.0,742.0,744.0,741.0
745.0,740.0,743.0,738.0
743.0,739.0,740.0,735.0
741.0,738.0,738.0,737.0
741.0,738.0,735.0,738.0
740.0,738.0,735.0,735.0
743.0,741.0,739.0,737.0
746.0,744.0,743.0,741.0
749.0,745.0,746.0,744.0
750.0,748.0,749.0,748.0
755.0,751.0,753.0,752.0
755.0,751.0,755.0,753.0
756.0,751.0,756.0,755.0
754.0,749.0,754.0,753.0
752.0,748.0,752.0,750.0
748.0,745.0,749.0,745.0
747.0,744.0,746.0,743.0
744.0,742.0,743.0,737.0
744.0,740.0,740.0,734.0
742.0,739.0,739.0,735.0
739.0,738.0,737.0,735.0
738.0,737.0,736.0,736.0
740.0,738.0,737.0,737.0
744.0,741.0,741.0,741.0
746.0,744.0,743.0,745.0
749.0,747.0,748.0,747.0
751.0,749.0,750.0,750.0
754.0,751.0,753.0,753.0
754.0,752.0,755.0,754.0
754.0,752.0,755.0,752.0
758.0,749.0,754.0,751.0
760.0,747.0,751.0,749.0
757.0,745.0,748.0,745.0
754.0,742.0,746.0,742.0
754.0,742.0,743.0,739.0
744.0,739.0,740.0,736.0
744.0,739.0,738.0,734.0
749.0,738.0,735.0,731.0
748.0,738.0,735.0,734.0
743.0,740.0,737.0,738.0
743.0,742.0,742.0,742.0
737.0,742.0,745.0,745.0
742.0,747.0,748.0,750.0
752.0,749.0,751.0,753.0
755.0,750.0,754.0,754.0
757.0,752.0,756.0,754.0
756.0,749.0,755.0,751.0
754.0,749.0,753.0,749.0
752.0,746.0,750.0,745.0
745.0,744.0,747.0,744.0
735.0,743.0,744.0,739.0
741.0,741.0,741.0,737.0
742.0,738.0,737.0,733.0
737.0,738.0,735.0,735.0
739.0,737.0,734.0,737.0
742.0,738.0,734.0,740.0
745.0,741.0,737.0,743.0
748.0,743.0,741.0,745.0
750.0,746.0,746.0,746.0
748.0,748.0,749.0,749.0
751.0,752.0,754.0,753.0
751.0,752.0,756.0,754.0
753.0,751.0,757.0,758.0
752.0,750.0,755.0,756.0
751.0,748.0,752.0,752.0
748.0,744.0,748.0,747.0
746.0,744.0,746.0,743.0
744.0,742.0,742.0,740.0
742.0,741.0,739.0,736.0
740.0,739.0,737.0,735.0
739.0,737.0,735.0,733.0
740.0,737.0,736.0,732.0
744.0,739.0,737.0,734.0
748.0,744.0,740.0,738.0
746.0,743.0,745.0,740.0
748.0,747.0,748.0,746.0
752.0,748.0,751.0,750.0
754.0,750.0,755.0,754.0
755.0,751.0,756.0,755.0
754.0,751.0,755.0,753.0
752.0,748.0,754.0,752.0
750.0,747.0,751.0,748.0
748.0,744.0,748.0,746.0
745.0,743.0,744.0,743.0
744.0,741.0,741.0,740.0
741.0,739.0,738.0,736.0
741.0,739.0,737.0,736.0
739.0,737.0,736.0,733.0
738.0,737.0,735.0,734.0
741.0,740.0,740.0,737.0
745.0,743.0,742.0,741.0
746.0,745.0,745.0,743.0
750.0,748.0,749.0,748.0
754.0,751.0,752.0,752.0
755.0,752.0,754.0,754.0
758.0,752.0,756.0,757.0
755.0,751.0,754.0,754.0
753.0,748.0,753.0,752.0
750.0,746.0,749.0,750.0
748.0,743.0,747.0,746.0
746.0,741.0,744.0,745.0
742.0,740.0,743.0,740.0
740.0,739.0,739.0,736.0
738.0,738.0,737.0,734.0
741.0,736.0,737.0,734.0
743.0,738.0,736.0,733.0
744.0,740.0,740.0,737.0
746.0,744.0,744.0,741.0
748.0,746.0,748.0,744.0
752.0,747.0,750.0,748.0
755.0,752.0,754.0,750.0
755.0,752.0,756.0,750.0
756.0,751.0,756.0,750.0
753.0,750.0,754.0,749.0
751.0,748.0,752.0,746.0
749.0,745.0,749.0,744.0
747.0,744.0,747.0,742.0
746.0,741.0,744.0,743.0
742.0,740.0,740.0,737.0
741.0,739.0,737.0,735.0
740.0,738.0,735.0,736.0
739.0,737.0,735.0,736.0
740.0,739.0,735.0,736.0
743.0,743.0,740.0,739.0
748.0,744.0,744.0,740.0
753.0,748.0,748.0,743.0
758.0,749.0,752.0,746.0
761.0,752.0,754.0,750.0
762.0,753.0,756.0,753.0
758.0,751.0,755.0,753.0
748.0,749.0,752.0,755.0
747.0,747.0,748.0,749.0
748.0,745.0,744.0,744.0
751.0,743.0,742.0,741.0
752.0,741.0,740.0,741.0
752.0,739.0,737.0,738.0
752.0,739.0,735.0,736.0
757.0,738.0,733.0,736.0
751.0,738.0,734.0,743.0
747.0,741.0,738.0,746.0
745.0,744.0,743.0,746.0
738.0,744.0,747.0,746.0
745.0,747.0,749.0,749.0
747.0,750.0,753.0,753.0
745.0,751.0,755.0,754.0
751.0,752.0,756.0,757.0
751.0,749.0,754.0,754.0
750.0,747.0,752.0,751.0
747.0,746.0,749.0,746.0
745.0,744.0,746.0,744.0
741.0,742.0,742.0,740.0
741.0,741.0,738.0,740.0
739.0,740.0,737.0,738.0
737.0,738.0,735.0,736.0
739.0,738.0,735.0,735.0
741.0,738.0,736.0,736.0
744.0,741.0,741.0,740.0
747.0,745.0,744.0,743.0
750.0,747.0,750.0,746.0
752.0,749.0,752.0,750.0
754.0,752.0,756.0,756.0
753.0,752.0,757.0,755.0
754.0,751.0,757.0,756.0
752.0,750.0,755.0,754.0
749.0,747.0,753.0,752.0
747.0,745.0,750.0,748.0
747.0,743.0,747.0,746.0
745.0,742.0,744.0,742.0
743.0,740.0,740.0,739.0
742.0,739.0,739.0,737.0
741.0,738.0,737.0,734.0
743.0,738.0,737.0,733.0
744.0,740.0,738.0,736.0
746.0,743.0,743.0,739.0
745.0,745.0,745.0,740.0
749.0,748.0,749.0,742.0
754.0,751.0,752.0,745.0
756.0,752.0,754.0,748.0
756.0,753.0,757.0,753.0
755.0,750.0,756.0,757.0
753.0,749.0,755.0,756.0
751.0,747.0,753.0,751.0
748.0,745.0,747.0,744.0
747.0,742.0,744.0,741.0
744.0,742.0,741.0,739.0
742.0,739.0,738.0,739.0
741.0,738.0,737.0,740.0
740.0,738.0,734.0,736.0
741.0,738.0,734.0,733.0
744.0,741.0,737.0,738.0
746.0,743.0,742.0,743.0
748.0,745.0,745.0,748.0
754.0,748.0,751.0,750.0
759.0,751.0,753.0,754.0
756.0,751.0,755.0,755.0
753.0,752.0,757.0,755.0
752.0,750.0,755.0,754.0
750.0,748.0,753.0,751.0
749.0,745.0,750.0,748.0
747.0,744.0,747.0,745.0
745.0,741.0,745.0,742.0
743.0,740.0,741.0,739.0
742.0,738.0,740.0,736.0
741.0,737.0,738.0,733.0
740.0,738.0,737.0,732.0
741.0,739.0,737.0,732.0
744.0,741.0,739.0,736.0
746.0,744.0,744.0,738.0
751.0,747.0,748.0,742.0
753.0,750.0,751.0,741.0
758.0,751.0,757.0,745.0
757.0,752.0,758.0,749.0
753.0,752.0,757.0,748.0
752.0,749.0,755.0,752.0
749.0,747.0,751.0,754.0
748.0,745.0,748.0,748.0
748.0,743.0,744.0,746.0
745.0,741.0,742.0,745.0
742.0,740.0,738.0,745.0
741.0,739.0,736.0,744.0
739.0,737.0,735.0,740.0
739.0,737.0,735.0,739.0
742.0,739.0,738.0,742.0
746.0,743.0,742.0,745.0
747.0,745.0,745.0,745.0
751.0,748.0,749.0,749.0
754.0,750.0,753.0,752.0
755.0,751.0,755.0,754.0
757.0,752.0,757.0,756.0
755.0,750.0,755.0,754.0
753.0,748.0,753.0,753.0
750.0,746.0,751.0,750.0
748.0,744.0,748.0,746.0
746.0,742.0,744.0,743.0
745.0,741.0,743.0,740.0
742.0,740.0,739.0,738.0
742.0,739.0,737.0,737.0
741.0,738.0,737.0,735.0
741.0,739.0,736.0,735.0
745.0,742.0,741.0,737.0
749.0,744.0,745.0,741.0
753.0,747.0,747.0,742.0
758.0,749.0,749.0,747.0
760.0,751.0,754.0,749.0
758.0,752.0,755.0,750.0
754.0,752.0,757.0,751.0
750.0,750.0,755.0,748.0
749.0,749.0,752.0,746.0
751.0,746.0,749.0,745.0
751.0,744.0,746.0,744.0
749.0,742.0,743.0,744.0
744.0,740.0,741.0,743.0
738.0,738.0,738.0,744.0
738.0,736.0,736.0,739.0
738.0,737.0,735.0,734.0
740.0,738.0,736.0,733.0
743.0,743.0,740.0,736.0
747.0,744.0,744.0,742.0
749.0,747.0,748.0,748.0
752.0,749.0,752.0,753.0
754.0,752.0,756.0,754.0
755.0,752.0,757.0,755.0
754.0,751.0,757.0,755.0
753.0,749.0,754.0,754.0
750.0,747.0,751.0,752.0
748.0,745.0,748.0,748.0
746.0,743.0,746.0,743.0
745.0,741.0,744.0,742.0
742.0,739.0,740.0,738.0
742.0,740.0,738.0,736.0
740.0,738.0,736.0,734.0
740.0,738.0,737.0,733.0
742.0,740.0,739.0,737.0
746.0,743.0,743.0,740.0
748.0,745.0,746.0,744.0
751.0,749.0,749.0,748.0
754.0,751.0,753.0,751.0
756.0,752.0,755.0,752.0
761.0,752.0,757.0,751.0
761.0,750.0,756.0,748.0
762.0,750.0,754.0,746.0
761.0,748.0,752.0,743.0
756.0,744.0,750.0,741.0
751.0,742.0,746.0,738.0
752.0,740.0,744.0,736.0
737.0,739.0,740.0,732.0
729.0,738.0,737.0,730.0
734.0,737.0,736.0,735.0
737.0,739.0,736.0,737.0
742.0,741.0,740.0,741.0
745.0,745.0,743.0,748.0
748.0,746.0,746.0,752.0
750.0,749.0,749.0,750.0
754.0,752.0,754.0,753.0
754.0,752.0,756.0,758.0
755.0,752.0,755.0,760.0
752.0,750.0,755.0,754.0
750.0,748.0,752.0,748.0
748.0,746.0,747.0,741.0
747.0,744.0,746.0,738.0
744.0,743.0,744.0,732.0
742.0,740.0,743.0,729.0
741.0,739.0,743.0,729.0
741.0,738.0,740.0,732.0
739.0,737.0,739.0,737.0
742.0,739.0,738.0,739.0
745.0,742.0,743.0,739.0
748.0,745.0,745.0,744.0
751.0,747.0,748.0,749.0
753.0,749.0,750.0,754.0
755.0,752.0,754.0,757.0
756.0,753.0,754.0,758.0
755.0,751.0,753.0,757.0
754.0,750.0,753.0,754.0
751.0,747.0,749.0,752.0
749.0,745.0,747.0,749.0
747.0,742.0,745.0,745.0
746.0,743.0,742.0,742.0
743.0,739.0,738.0,739.0
742.0,740.0,737.0,737.0
741.0,738.0,735.0,735.0
741.0,738.0,736.0,736.0
743.0,741.0,741.0,739.0
747.0,744.0,747.0,740.0
749.0,745.0,751.0,741.0
751.0,748.0,758.0,745.0
755.0,752.0,763.0,748.0
756.0,752.0,762.0,749.0
757.0,753.0,762.0,750.0
755.0,750.0,757.0,749.0
753.0,749.0,751.0,753.0
751.0,746.0,744.0,755.0
749.0,745.0,738.0,753.0
748.0,743.0,734.0,745.0
748.0,742.0,734.0,740.0
746.0,741.0,733.0,735.0
745.0,739.0,732.0,732.0
745.0,738.0,731.0,732.0
744.0,739.0,732.0,732.0
746.0,742.0,738.0,737.0
748.0,745.0,742.0,742.0
751.0,747.0,747.0,748.0
753.0,749.0,748.0,749.0
755.0,753.0,754.0,751.0
755.0,749.0,751.0,751.0
754.0,746.0,750.0,750.0
754.0,746.0,749.0,750.0
751.0,745.0,747.0,748.0
751.0,744.0,746.0,746.0
749.0,743.0,744.0,741.0
748.0,743.0,743.0,738.0
747.0,742.0,742.0,733.0
747.0,742.0,740.0,730.0
747.0,741.0,739.0,727.0
748.0,737.0,739.0,726.0
750.0,737.0,743.0,728.0
751.0,739.0,745.0,731.0
752.0,742.0,748.0,736.0
754.0,742.0,750.0,745.0
755.0,747.0,753.0,754.0
755.0,748.0,752.0,757.0
755.0,750.0,752.0,760.0
754.0,752.0,752.0,760.0
752.0,753.0,750.0,755.0
751.0,751.0,747.0,751.0
750.0,748.0,746.0,746.0
749.0,745.0,743.0,743.0
748.0,744.0,740.0,743.0
747.0,744.0,738.0,745.0
747.0,742.0,736.0,745.0
747.0,742.0,736.0,745.0
748.0,743.0,739.0,746.0
750.0,744.0,742.0,746.0
751.0,745.0,743.0,746.0
753.0,748.0,746.0,746.0
754.0,749.0,748.0,747.0
755.0,749.0,751.0,751.0
755.0,750.0,751.0,751.0
754.0,749.0,749.0,751.0
753.0,748.0,747.0,751.0
752.0,748.0,746.0,748.0
750.0,745.0,743.0,746.0
749.0,740.0,741.0,743.0
749.0,739.0,741.0,741.0
747.0,738.0,739.0,736.0
747.0,740.0,741.0,736.0
747.0,739.0,739.0,738.0
746.0,740.0,740.0,739.0
749.0,742.0,744.0,739.0
750.0,747.0,745.0,742.0
751.0,747.0,748.0,743.0
753.0,750.0,749.0,746.0
755.0,749.0,751.0,749.0
755.0,748.0,751.0,750.0
755.0,747.0,751.0,751.0
754.0,746.0,751.0,747.0
752.0,746.0,748.0,747.0
751.0,746.0,746.0,743.0
751.0,744.0,745.0,742.0
749.0,744.0,744.0,739.0
749.0,743.0,742.0,736.0
749.0,742.0,741.0,738.0
747.0,741.0,738.0,738.0
747.0,740.0,739.0,736.0
748.0,741.0,739.0,737.0
749.0,744.0,742.0,738.0
751.0,746.0,744.0,741.0
752.0,749.0,746.0,741.0
754.0,750.0,747.0,747.0
756.0,752.0,752.0,749.0
755.0,751.0,753.0,745.0
755.0,750.0,755.0,744.0
754.0,749.0,752.0,750.0
753.0,747.0,748.0,754.0
751.0,746.0,745.0,752.0
749.0,744.0,745.0,748.0
749.0,744.0,741.0,744.0
748.0,741.0,739.0,741.0
748.0,742.0,738.0,740.0
748.0,741.0,737.0,738.0
747.0,742.0,739.0,737.0
749.0,744.0,739.0,743.0
750.0,746.0,742.0,749.0
750.0,745.0,744.0,750.0
753.0,746.0,746.0,750.0
754.0,746.0,750.0,751.0
755.0,749.0,753.0,752.0
754.0,750.0,754.0,753.0
754.0,748.0,753.0,751.0
753.0,747.0,752.0,749.0
751.0,744.0,751.0,746.0
750.0,744.0,749.0,744.0
749.0,739.0,746.0,742.0
749.0,737.0,745.0,740.0
748.0,735.0,741.0,738.0
747.0,735.0,740.0,736.0
747.0,735.0,737.0,736.0
748.0,738.0,736.0,737.0
750.0,741.0,738.0,739.0
750.0,745.0,740.0,742.0
752.0,748.0,743.0,745.0
753.0,752.0,748.0,748.0
754.0,753.0,751.0,753.0
754.0,751.0,752.0,754.0
754.0,751.0,753.0,755.0
754.0,748.0,753.0,751.0
753.0,747.0,751.0,746.0
751.0,745.0,749.0,740.0
750.0,745.0,747.0,738.0
749.0,743.0,746.0,735.0
748.0,743.0,742.0,736.0
748.0,742.0,741.0,734.0
746.0,741.0,740.0,734.0
746.0,741.0,738.0,738.0
747.0,742.0,737.0,740.0
750.0,744.0,738.0,743.0
750.0,741.0,740.0,745.0
753.0,740.0,743.0,748.0
753.0,741.0,746.0,748.0
755.0,744.0,751.0,749.0
756.0,745.0,753.0,750.0
755.0,746.0,753.0,751.0
754.0,745.0,752.0,752.0
752.0,744.0,752.0,749.0
751.0,744.0,749.0,743.0
750.0,744.0,747.0,743.0
749.0,740.0,744.0,742.0
747.0,735.0,742.0,739.0
747.0,737.0,741.0,738.0
746.0,738.0,740.0,732.0
745.0,740.0,740.0,731.0
747.0,743.0,740.0,734.0
748.0,748.0,741.0,733.0
749.0,751.0,741.0,736.0
752.0,753.0,742.0,743.0
755.0,754.0,744.0,753.0
757.0,754.0,746.0,758.0
758.0,751.0,748.0,766.0
755.0,748.0,750.0,766.0
754.0,746.0,751.0,762.0
752.0,745.0,749.0,756.0
750.0,744.0,748.0,742.0
749.0,744.0,745.0,734.0
748.0,744.0,745.0,726.0
746.0,743.0,742.0,722.0
747.0,743.0,741.0,721.0
746.0,744.0,739.0,721.0
748.0,744.0,738.0,730.0
749.0,745.0,739.0,742.0
748.0,745.0,742.0,750.0
751.0,746.0,744.0,755.0
753.0,747.0,747.0,759.0
756.0,748.0,749.0,764.0
756.0,748.0,749.0,763.0
755.0,749.0,750.0,756.0
755.0,748.0,749.0,749.0
753.0,744.0,749.0,741.0
751.0,739.0,747.0,739.0
751.0,734.0,745.0,737.0
750.0,733.0,744.0,734.0
749.0,737.0,742.0,733.0
748.0,740.0,741.0,732.0
748.0,741.0,739.0,730.0
748.0,745.0,738.0,733.0
749.0,748.0,740.0,744.0
750.0,752.0,743.0,754.0
749.0,753.0,745.0,756.0
752.0,750.0,747.0,756.0
753.0,749.0,746.0,755.0
755.0,748.0,745.0,755.0
757.0,748.0,745.0,755.0
760.0,749.0,745.0,755.0
761.0,747.0,744.0,753.0
760.0,744.0,742.0,749.0
758.0,742.0,742.0,745.0
755.0,743.0,743.0,740.0
752.0,747.0,744.0,738.0
746.0,744.0,743.0,741.0
744.0,744.0,743.0,743.0
742.0,743.0,740.0,738.0
741.0,743.0,741.0,736.0
744.0,744.0,743.0,741.0
747.0,748.0,746.0,742.0
748.0,749.0,749.0,738.0
750.0,750.0,751.0,737.0
752.0,749.0,754.0,737.0
753.0,748.0,755.0,736.0
756.0,748.0,755.0,733.0
756.0,747.0,754.0,730.0
757.0,746.0,752.0,732.0
756.0,744.0,746.0,732.0
754.0,744.0,745.0,730.0
755.0,743.0,738.0,728.0
754.0,744.0,735.0,730.0
756.0,743.0,728.0,739.0
761.0,744.0,725.0,744.0
758.0,744.0,724.0,745.0
753.0,745.0,724.0,744.0
756.0,747.0,724.0,749.0
759.0,748.0,729.0,763.0
760.0,747.0,738.0,772.0
745.0,747.0,749.0,770.0
739.0,749.0,758.0,768.0
749.0,748.0,760.0,759.0
750.0,747.0,761.0,754.0
750.0,746.0,758.0,754.0
749.0,745.0,756.0,752.0
747.0,746.0,754.0,748.0
744.0,744.0,751.0,744.0
742.0,743.0,747.0,739.0
741.0,742.0,741.0,735.0
741.0,735.0,739.0,736.0
742.0,732.0,738.0,735.0
745.0,731.0,737.0,732.0
747.0,733.0,740.0,733.0
751.0,736.0,743.0,741.0
758.0,740.0,744.0,736.0
760.0,744.0,746.0,732.0
760.0,747.0,745.0,732.0
762.0,753.0,746.0,731.0
764.0,757.0,748.0,732.0
760.0,756.0,747.0,738.0
755.0,754.0,745.0,743.0
748.0,748.0,743.0,750.0
745.0,743.0,742.0,753.0
748.0,738.0,741.0,752.0
746.0,736.0,743.0,751.0
743.0,736.0,745.0,746.0
745.0,735.0,745.0,740.0
746.0,736.0,741.0,740.0
746.0,740.0,739.0,745.0
748.0,745.0,739.0,745.0
749.0,750.0,743.0,744.0
754.0,751.0,745.0,744.0
752.0,756.0,745.0,744.0
752.0,757.0,748.0,748.0
756.0,756.0,745.0,742.0
760.0,756.0,746.0,730.0
765.0,753.0,745.0,718.0
767.0,753.0,745.0,712.0
771.0,752.0,738.0,713.0
776.0,751.0,731.0,714.0
769.0,749.0,717.0,710.0
760.0,747.0,707.0,725.0
745.0,745.0,703.0,743.0
747.0,744.0,706.0,762.0
742.0,739.0,721.0,785.0
738.0,739.0,735.0,777.0
744.0,743.0,744.0,761.0
742.0,745.0,754.0,736.0
750.0,746.0,769.0,717.0
746.0,748.0,773.0,702.0
750.0,750.0,770.0,698.0
754.0,751.0,758.0,705.0
758.0,753.0,746.0,733.0
759.0,752.0,733.0,755.0
758.0,749.0,724.0,772.0
750.0,747.0,724.0,778.0
749.0,744.0,731.0,781.0
746.0,743.0,730.0,772.0
750.0,742.0,728.0,760.0
748.0,742.0,730.0,738.0
746.0,743.0,723.0,725.0
749.0,741.0,717.0,729.0
744.0,739.0,723.0,735.0
739.0,740.0,729.0,741.0
748.0,741.0,729.0,751.0
754.0,744.0,736.0,752.0
756.0,745.0,742.0,749.0
757.0,747.0,755.0,745.0
754.0,749.0,765.0,750.0
753.0,749.0,766.0,763.0
753.0,750.0,761.0,764.0
752.0,745.0,754.0,757.0
750.0,737.0,750.0,755.0
746.0,733.0,747.0,752.0
743.0,734.0,746.0,740.0
743.0,733.0,737.0,734.0
744.0,734.0,733.0,730.0
751.0,738.0,739.0,721.0
755.0,743.0,740.0,717.0
763.0,751.0,734.0,718.0
776.0,756.0,728.0,733.0
780.0,755.0,725.0,751.0
774.0,755.0,731.0,757.0
769.0,754.0,748.0,742.0
763.0,753.0,758.0,726.0
752.0,753.0,753.0,736.0
731.0,753.0,735.0,750.0
741.0,757.0,726.0,756.0
750.0,756.0,732.0,758.0
752.0,754.0,744.0,760.0
751.0,752.0,747.0,747.0
750.0,748.0,745.0,743.0
754.0,743.0,744.0,742.0
750.0,740.0,748.0,739.0
740.0,738.0,745.0,740.0
730.0,738.0,732.0,735.0
740.0,740.0,722.0,731.0
748.0,743.0,718.0,721.0
756.0,744.0,723.0,715.0
761.0,748.0,736.0,720.0
763.0,750.0,748.0,731.0
750.0,749.0,757.0,729.0
753.0,747.0,757.0,735.0
756.0,745.0,749.0,742.0
756.0,745.0,738.0,743.0
753.0,744.0,731.0,747.0
750.0,743.0,730.0,754.0
739.0,743.0,728.0,758.0
741.0,742.0,726.0,759.0
753.0,744.0,723.0,756.0
753.0,743.0,721.0,759.0
750.0,739.0,719.0,765.0
753.0,739.0,728.0,747.0
757.0,741.0,740.0,742.0
758.0,743.0,745.0,748.0
761.0,745.0,752.0,750.0
750.0,745.0,753.0,749.0
756.0,749.0,754.0,743.0
758.0,752.0,758.0,741.0
757.0,754.0,758.0,738.0
757.0,755.0,746.0,735.0
759.0,750.0,740.0,728.0
759.0,751.0,743.0,729.0
759.0,749.0,757.0,729.0
754.0,747.0,761.0,712.0
750.0,746.0,736.0,680.0
741.0,748.0,705.0,667.0
751.0,749.0,680.0,679.0
762.0,751.0,685.0,711.0
768.0,753.0,705.0,740.0
765.0,750.0,716.0,772.0
752.0,748.0,713.0,792.0
744.0,747.0,706.0,802.0
746.0,748.0,720.0,793.0
742.0,745.0,739.0,780.0
752.0,746.0,736.0,771.0
763.0,745.0,732.0,754.0
765.0,747.0,738.0,740.0
753.0,748.0,754.0,724.0
735.0,749.0,773.0,712.0
744.0,745.0,783.0,729.0
749.0,743.0,775.0,760.0
745.0,743.0,761.0,770.0
743.0,740.0,751.0,774.0
750.0,738.0,729.0,768.0
754.0,742.0,717.0,751.0
755.0,748.0,710.0,742.0
749.0,749.0,711.0,731.0
752.0,751.0,721.0,730.0
757.0,751.0,729.0,735.0
761.0,748.0,747.0,745.0
757.0,742.0,752.0,754.0
758.0,741.0,727.0,739.0
758.0,739.0,703.0,729.0
751.0,738.0,707.0,712.0
750.0,741.0,727.0,703.0
755.0,742.0,747.0,703.0
756.0,741.0,759.0,733.0
754.0,740.0,777.0,744.0
752.0,742.0,777.0,760.0
742.0,740.0,762.0,766.0
735.0,739.0,749.0,783.0
745.0,741.0,739.0,773.0
750.0,742.0,749.0,766.0
749.0,741.0,756.0,747.0
748.0,742.0,760.0,736.0
754.0,745.0,752.0,747.0
761.0,747.0,744.0,754.0
756.0,749.0,741.0,752.0
761.0,753.0,736.0,737.0
767.0,757.0,734.0,733.0
762.0,757.0,728.0,723.0
761.0,755.0,733.0,714.0
762.0,751.0,730.0,717.0
740.0,748.0,722.0,726.0
733.0,743.0,703.0,746.0
740.0,746.0,685.0,762.0
738.0,742.0,689.0,783.0
729.0,741.0,719.0,792.0
744.0,749.0,757.0,779.0
759.0,754.0,779.0,754.0
776.0,744.0,772.0,733.0
781.0,738.0,759.0,725.0
779.0,736.0,762.0,719.0
777.0,735.0,773.0,703.0
775.0,741.0,775.0,706.0
777.0,750.0,787.0,675.0
783.0,753.0,779.0,666.0
777.0,756.0,737.0,687.0
748.0,755.0,697.0,747.0
733.0,765.0,686.0,789.0
722.0,763.0,697.0,815.0
725.0,756.0,707.0,836.0
741.0,750.0,696.0,786.0
751.0,744.0,696.0,758.0
761.0,737.0,723.0,746.0
756.0,733.0,744.0,726.0
744.0,736.0,759.0,723.0
746.0,743.0,765.0,733.0
745.0,748.0,760.0,737.0
752.0,750.0,752.0,721.0
775.0,751.0,723.0,710.0
793.0,752.0,709.0,752.0
787.0,749.0,740.0,781.0
761.0,747.0,767.0,762.0
746.0,745.0,771.0,735.0
752.0,744.0,754.0,729.0
750.0,744.0,743.0,724.0
736.0,740.0,752.0,712.0
737.0,740.0,761.0,685.0
741.0,751.0,750.0,696.0
745.0,762.0,731.0,705.0
755.0,767.0,746.0,710.0
783.0,767.0,758.0,727.0
793.0,766.0,745.0,785.0
784.0,762.0,744.0,823.0
796.0,769.0,737.0,815.0
775.0,773.0,741.0,795.0
745.0,766.0,746.0,776.0
726.0,759.0,745.0,758.0
721.0,753.0,741.0,751.0
729.0,740.0,745.0,751.0
728.0,733.0,738.0,742.0
732.0,730.0,724.0,736.0
737.0,726.0,722.0,735.0
732.0,726.0,729.0,734.0
733.0,729.0,730.0,729.0
740.0,735.0,733.0,728.0
744.0,745.0,750.0,727.0
749.0,741.0,756.0,725.0
755.0,743.0,744.0,766.0
757.0,743.0,733.0,801.0
748.0,741.0,743.0,797.0
765.0,738.0,771.0,765.0
774.0,741.0,762.0,764.0
791.0,756.0,745.0,763.0
795.0,771.0,737.0,744.0
800.0,769.0,714.0,707.0
782.0,765.0,701.0,698.0
785.0,760.0,701.0,725.0
754.0,748.0,679.0,748.0
707.0,738.0,678.0,778.0
717.0,734.0,699.0,796.0
726.0,734.0,726.0,773.0
721.0,731.0,761.0,740.0
730.0,731.0,786.0,742.0
747.0,737.0,803.0,740.0
756.0,741.0,794.0,728.0
757.0,749.0,787.0,742.0
754.0,753.0,788.0,737.0
750.0,755.0,779.0,710.0
743.0,759.0,762.0,706.0
751.0,759.0,741.0,733.0
764.0,759.0,684.0,798.0
761.0,750.0,625.0,833.0
766.0,740.0,637.0,794.0
762.0,731.0,697.0,754.0
753.0,735.0,759.0,747.0
762.0,747.0,801.0,746.0
772.0,754.0,817.0,749.0
776.0,754.0,809.0,755.0
766.0,750.0,749.0,748.0
739.0,742.0,695.0,752.0
729.0,738.0,689.0,759.0
734.0,738.0,711.0,752.0
744.0,741.0,757.0,705.0
757.0,747.0,774.0,687.0
741.0,753.0,783.0,670.0
746.0,754.0,783.0,659.0
753.0,750.0,757.0,699.0
752.0,747.0,725.0,810.0
743.0,749.0,728.0,867.0
740.0,747.0,747.0,824.0
728.0,741.0,726.0,774.0
735.0,742.0,700.0,765.0
746.0,740.0,690.0,743.0
756.0,732.0,712.0,733.0
773.0,724.0,756.0,720.0
791.0,719.0,764.0,715.0
771.0,723.0,766.0,761.0
750.0,736.0,763.0,782.0
750.0,760.0,758.0,733.0
758.0,767.0,760.0,717.0
752.0,765.0,767.0,729.0
756.0,765.0,747.0,752.0
763.0,761.0,742.0,786.0
752.0,755.0,763.0,808.0
744.0,747.0,776.0,771.0
740.0,744.0,769.0,715.0
750.0,746.0,777.0,679.0
762.0,750.0,773.0,676.0
768.0,753.0,738.0,686.0
757.0,749.0,695.0,753.0
740.0,740.0,649.0,816.0
736.0,737.0,631.0,841.0
732.0,737.0,662.0,804.0
738.0,740.0,718.0,742.0
736.0,741.0,764.0,723.0
734.0,744.0,791.0,762.0
741.0,742.0,782.0,789.0
745.0,738.0,779.0,766.0
743.0,733.0,784.0,760.0
750.0,740.0,775.0,744.0
756.0,749.0,741.0,708.0
755.0,752.0,711.0,684.0
766.0,751.0,678.0,672.0
781.0,744.0,664.0,665.0
788.0,738.0,702.0,725.0
785.0,743.0,732.0,800.0
781.0,747.0,765.0,815.0
758.0,746.0,810.0,761.0
735.0,743.0,811.0,706.0
732.0,744.0,772.0,689.0
736.0,752.0,730.0,689.0
728.0,765.0,721.0,709.0
769.0,768.0,717.0,750.0
793.0,767.0,721.0,798.0
784.0,770.0,748.0,794.0
753.0,771.0,772.0,812.0
734.0,762.0,760.0,839.0
721.0,752.0,733.0,836.0
729.0,742.0,740.0,789.0
725.0,734.0,749.0,733.0
725.0,729.0,745.0,685.0
733.0,732.0,742.0,669.0
739.0,736.0,754.0,657.0
742.0,742.0,745.0,649.0
771.0,744.0,710.0,693.0
774.0,736.0,695.0,742.0
766.0,733.0,728.0,751.0
771.0,744.0,763.0,789.0
749.0,755.0,744.0,802.0
766.0,757.0,740.0,760.0
785.0,760.0,750.0,743.0
771.0,756.0,738.0,789.0
727.0,743.0,727.0,798.0
725.0,742.0,754.0,767.0
750.0,744.0,783.0,734.0
741.0,740.0,761.0,706.0
735.0,739.0,727.0,687.0
740.0,732.0,710.0,710.0
724.0,730.0,686.0,792.0
732.0,735.0,704.0,826.0
729.0,744.0,727.0,800.0
735.0,750.0,736.0,770.0
746.0,748.0,765.0,760.0
757.0,745.0,777.0,749.0
762.0,739.0,784.0,724.0
773.0,736.0,794.0,710.0
776.0,731.0,796.0,692.0
759.0,745.0,770.0,681.0
733.0,750.0,750.0,686.0
739.0,751.0,749.0,737.0
740.0,752.0,712.0,795.0
746.0,752.0,681.0,835.0
755.0,739.0,702.0,796.0
744.0,733.0,737.0,724.0
753.0,738.0,732.0,709.0
761.0,743.0,709.0,729.0
750.0,743.0,709.0,756.0
756.0,741.0,739.0,769.0
769.0,739.0,784.0,757.0
781.0,739.0,820.0,740.0
807.0,738.0,820.0,733.0
814.0,740.0,781.0,725.0
789.0,741.0,730.0,689.0
769.0,742.0,697.0,678.0
727.0,744.0,680.0,679.0
709.0,747.0,692.0,718.0
722.0,746.0,697.0,804.0
723.0,742.0,726.0,858.0
716.0,742.0,749.0,816.0
720.0,745.0,762.0,800.0
719.0,743.0,756.0,764.0
725.0,742.0,764.0,723.0
737.0,742.0,793.0,701.0
746.0,742.0,820.0,695.0
741.0,746.0,805.0,700.0
749.0,750.0,776.0,732.0
748.0,756.0,753.0,770.0
742.0,760.0,717.0,776.0
742.0,762.0,686.0,750.0
739.0,763.0,661.0,691.0
749.0,769.0,670.0,676.0
757.0,764.0,694.0,719.0
758.0,758.0,731.0,726.0
754.0,751.0,778.0,688.0
749.0,748.0,797.0,707.0
749.0,743.0,762.0,791.0
761.0,739.0,750.0,800.0
787.0,741.0,753.0,746.0
800.0,746.0,740.0,730.0
801.0,751.0,734.0,760.0
788.0,751.0,741.0,774.0
772.0,750.0,748.0,749.0
730.0,743.0,728.0,745.0
703.0,743.0,728.0,728.0
719.0,746.0,731.0,685.0
738.0,749.0,726.0,718.0
746.0,749.0,749.0,726.0
743.0,746.0,770.0,716.0
734.0,744.0,775.0,773.0
729.0,744.0,762.0,806.0
729.0,744.0,748.0,781.0
729.0,743.0,730.0,772.0
723.0,742.0,705.0,781.0
731.0,729.0,710.0,785.0
738.0,719.0,722.0,777.0
747.0,722.0,742.0,739.0
763.0,730.0,727.0,682.0
756.0,736.0,723.0,653.0
753.0,743.0,737.0,613.0
774.0,757.0,752.0,588.0
778.0,766.0,757.0,642.0
783.0,771.0,763.0,725.0
765.0,767.0,730.0,791.0
736.0,754.0,693.0,862.0
721.0,744.0,723.0,909.0
717.0,742.0,760.0,881.0
725.0,741.0,785.0,810.0
737.0,741.0,796.0,757.0
737.0,741.0,795.0,740.0
739.0,740.0,755.0,735.0
733.0,742.0,738.0,706.0
741.0,749.0,731.0,678.0
746.0,748.0,737.0,651.0
748.0,745.0,753.0,609.0
764.0,746.0,729.0,635.0
777.0,739.0,692.0,693.0
789.0,741.0,697.0,758.0
794.0,747.0,726.0,794.0
781.0,754.0,743.0,816.0
763.0,753.0,759.0,810.0
724.0,750.0,766.0,795.0
725.0,753.0,763.0,766.0
724.0,747.0,770.0,728.0
734.0,750.0,805.0,715.0
733.0,746.0,799.0,708.0
738.0,741.0,786.0,700.0
754.0,733.0,777.0,698.0
749.0,728.0,756.0,703.0
756.0,731.0,719.0,696.0
769.0,744.0,668.0,722.0
763.0,747.0,623.0,774.0
752.0,747.0,616.0,802.0
743.0,740.0,663.0,763.0
735.0,730.0,739.0,728.0
732.0,730.0,778.0,741.0
719.0,738.0,808.0,780.0
716.0,741.0,829.0,789.0
745.0,747.0,817.0,767.0
765.0,755.0,796.0,739.0
762.0,753.0,775.0,704.0
755.0,757.0,749.0,689.0
752.0,762.0,724.0,702.0
743.0,759.0,732.0,727.0
745.0,760.0,690.0,746.0
758.0,755.0,669.0,743.0
756.0,748.0,698.0,737.0
749.0,742.0,750.0,761.0
740.0,738.0,771.0,784.0
740.0,739.0,795.0,748.0
757.0,747.0,796.0,733.0
769.0,765.0,766.0,720.0
766.0,772.0,720.0,701.0
756.0,767.0,703.0,694.0
750.0,758.0,719.0,710.0
761.0,740.0,753.0,741.0
748.0,723.0,769.0,734.0
733.0,726.0,781.0,698.0
754.0,746.0,788.0,691.0
786.0,751.0,777.0,731.0
793.0,755.0,740.0,748.0
783.0,756.0,713.0,762.0
729.0,749.0,705.0,799.0
690.0,735.0,710.0,802.0
701.0,730.0,727.0,750.0
707.0,726.0,730.0,733.0
727.0,725.0,707.0,731.0
746.0,724.0,693.0,703.0
766.0,724.0,703.0,703.0
766.0,727.0,744.0,733.0
759.0,736.0,796.0,755.0
748.0,744.0,816.0,760.0
736.0,751.0,797.0,764.0
742.0,756.0,778.0,762.0
750.0,756.0,768.0,757.0
749.0,756.0,752.0,693.0
753.0,761.0,732.0,667.0
769.0,759.0,719.0,711.0
759.0,757.0,722.0,721.0
736.0,751.0,719.0,713.0
752.0,746.0,720.0,701.0
744.0,750.0,744.0,675.0
733.0,747.0,739.0,719.0
737.0,742.0,716.0,781.0
741.0,746.0,695.0,800.0
733.0,746.0,720.0,799.0
740.0,738.0,766.0,812.0
729.0,738.0,788.0,783.0
733.0,741.0,797.0,730.0
746.0,736.0,800.0,701.0
758.0,737.0,797.0,697.0
764.0,736.0,787.0,686.0
771.0,736.0,767.0,677.0
783.0,738.0,731.0,668.0
771.0,739.0,687.0,678.0
769.0,741.0,661.0,750.0
741.0,741.0,664.0,806.0
722.0,741.0,680.0,783.0
735.0,741.0,730.0,733.0
727.0,748.0,780.0,711.0
747.0,754.0,791.0,688.0
756.0,753.0,756.0,678.0
766.0,747.0,740.0,688.0
770.0,743.0,747.0,710.0
774.0,746.0,746.0,770.0
763.0,745.0,736.0,801.0
694.0,729.0,737.0,801.0
701.0,717.0,769.0,744.0
724.0,720.0,778.0,734.0
742.0,726.0,786.0,739.0
741.0,734.0,764.0,735.0
735.0,737.0,746.0,755.0
735.0,733.0,732.0,775.0
735.0,737.0,738.0,755.0
734.0,749.0,757.0,734.0
736.0,756.0,778.0,722.0
739.0,757.0,777.0,703.0
745.0,757.0,772.0,686.0
750.0,757.0,765.0,678.0
748.0,757.0,777.0,691.0
751.0,761.0,775.0,713.0
753.0,761.0,751.0,766.0
751.0,754.0,737.0,841.0
747.0,748.0,725.0,833.0
744.0,742.0,707.0,780.0
747.0,739.0,646.0,746.0
749.0,738.0,652.0,741.0
751.0,740.0,719.0,718.0
783.0,758.0,777.0,684.0
804.0,767.0,814.0,667.0
792.0,771.0,811.0,648.0
786.0,767.0,784.0,633.0
763.0,748.0,750.0,644.0
736.0,740.0,716.0,720.0
704.0,734.0,701.0,821.0
713.0,723.0,723.0,840.0
723.0,723.0,753.0,803.0
732.0,739.0,764.0,776.0
733.0,748.0,755.0,759.0
731.0,751.0,737.0,744.0
736.0,752.0,732.0,723.0
739.0,752.0,726.0,706.0
741.0,744.0,728.0,715.0
743.0,746.0,735.0,725.0
741.0,748.0,749.0,716.0
740.0,746.0,766.0,720.0
737.0,744.0,774.0,737.0
737.0,738.0,764.0,782.0
738.0,731.0,748.0,820.0
738.0,734.0,736.0,765.0
743.0,742.0,746.0,688.0
744.0,747.0,761.0,638.0
749.0,755.0,751.0,629.0
764.0,761.0,748.0,669.0
773.0,763.0,747.0,718.0
777.0,761.0,752.0,730.0
768.0,754.0,764.0,721.0
746.0,747.0,776.0,731.0
737.0,742.0,768.0,759.0
740.0,742.0,749.0,799.0
747.0,739.0,747.0,796.0
744.0,738.0,737.0,747.0
761.0,733.0,722.0,740.0
740.0,731.0,719.0,755.0
725.0,733.0,730.0,737.0
735.0,738.0,730.0,718.0
740.0,745.0,732.0,717.0
746.0,746.0,743.0,718.0
752.0,746.0,742.0,722.0
742.0,746.0,746.0,732.0
745.0,745.0,734.0,737.0
737.0,745.0,733.0,729.0
748.0,748.0,757.0,711.0
765.0,749.0,779.0,693.0
761.0,750.0,787.0,683.0
767.0,745.0,777.0,706.0
758.0,742.0,757.0,735.0
735.0,743.0,750.0,757.0
738.0,744.0,750.0,754.0
753.0,740.0,751.0,727.0
765.0,736.0,752.0,694.0
763.0,732.0,752.0,661.0
758.0,728.0,757.0,655.0
751.0,734.0,755.0,713.0
727.0,735.0,751.0,765.0
719.0,734.0,751.0,811.0
741.0,738.0,752.0,815.0
752.0,742.0,756.0,777.0
748.0,746.0,754.0,755.0
735.0,752.0,760.0,750.0
728.0,752.0,759.0,742.0
733.0,749.0,753.0,735.0
733.0,744.0,748.0,734.0
740.0,734.0,744.0,735.0
742.0,725.0,738.0,729.0
741.0,719.0,738.0,720.0
739.0,720.0,747.0,720.0
741.0,725.0,746.0,725.0
750.0,735.0,744.0,729.0
752.0,743.0,751.0,743.0
755.0,753.0,758.0,744.0
758.0,762.0,760.0,735.0
745.0,763.0,764.0,735.0
746.0,759.0,759.0,729.0
752.0,753.0,755.0,721.0
745.0,753.0,753.0,730.0
736.0,753.0,751.0,740.0
740.0,751.0,735.0,730.0
743.0,748.0,720.0,727.0
744.0,749.0,718.0,721.0
744.0,748.0,736.0,713.0
740.0,747.0,760.0,701.0
738.0,743.0,774.0,682.0
743.0,742.0,776.0,675.0
742.0,742.0,774.0,688.0
741.0,741.0,760.0,715.0
742.0,743.0,753.0,740.0
743.0,744.0,756.0,747.0
745.0,744.0,756.0,748.0
745.0,746.0,754.0,755.0
749.0,747.0,752.0,763.0
749.0,747.0,764.0,744.0
746.0,747.0,779.0,730.0
746.0,747.0,783.0,717.0
746.0,749.0,775.0,705.0
746.0,751.0,765.0,701.0
745.0,749.0,757.0,717.0
744.0,746.0,751.0,719.0
744.0,744.0,748.0,721.0
743.0,740.0,748.0,722.0
742.0,737.0,757.0,722.0
742.0,735.0,761.0,715.0
742.0,736.0,760.0,709.0
745.0,740.0,756.0,704.0
746.0,742.0,748.0,701.0
749.0,745.0,739.0,709.0
749.0,747.0,739.0,732.0
749.0,748.0,745.0,755.0
749.0,748.0,743.0,745.0
749.0,748.0,742.0,731.0
749.0,746.0,731.0,735.0
749.0,747.0,719.0,733.0
745.0,747.0,711.0,733.0
745.0,745.0,704.0,752.0
741.0,744.0,710.0,751.0
741.0,742.0,726.0,734.0
740.0,740.0,733.0,717.0
739.0,741.0,739.0,716.0
742.0,739.0,748.0,715.0
740.0,738.0,759.0,715.0
744.0,741.0,758.0,718.0
745.0,742.0,756.0,721.0
751.0,745.0,755.0,728.0
760.0,748.0,749.0,729.0
747.0,750.0,750.0,730.0
747.0,750.0,751.0,729.0
750.0,750.0,753.0,726.0
753.0,748.0,753.0,725.0
751.0,747.0,753.0,725.0
749.0,745.0,751.0,723.0
749.0,743.0,749.0,724.0
748.0,744.0,746.0,722.0
752.0,742.0,743.0,718.0
751.0,742.0,742.0,718.0
748.0,742.0,738.0,716.0
745.0,742.0,737.0,715.0
743.0,744.0,741.0,720.0
747.0,745.0,744.0,721.0
749.0,746.0,745.0,722.0
757.0,747.0,750.0,726.0
767.0,748.0,753.0,728.0
788.0,749.0,753.0,724.0
777.0,751.0,755.0,724.0
763.0,752.0,754.0,726.0
776.0,751.0,753.0,726.0
731.0,743.0,751.0,729.0
718.0,739.0,747.0,728.0
723.0,735.0,746.0,725.0
734.0,735.0,744.0,721.0
742.0,734.0,741.0,717.0
738.0,734.0,741.0,714.0
734.0,736.0,741.0,714.0
743.0,740.0,740.0,716.0
743.0,745.0,743.0,721.0
741.0,747.0,745.0,722.0
744.0,748.0,747.0,725.0
742.0,747.0,750.0,725.0
741.0,748.0,752.0,727.0
742.0,747.0,750.0,726.0
744.0,748.0,750.0,727.0
748.0,747.0,751.0,726.0
747.0,746.0,747.0,726.0
746.0,745.0,745.0,726.0
746.0,744.0,744.0,725.0
743.0,742.0,746.0,724.0
742.0,741.0,744.0,720.0
743.0,741.0,744.0,718.0
742.0,742.0,745.0,715.0
743.0,741.0,745.0,715.0
743.0,742.0,744.0,715.0
747.0,744.0,745.0,718.0
747.0,745.0,746.0,721.0
749.0,746.0,749.0,724.0
750.0,748.0,754.0,726.0
751.0,750.0,765.0,729.0
751.0,748.0,768.0,728.0
750.0,747.0,768.0,728.0
748.0,745.0,768.0,726.0
748.0,744.0,763.0,725.0
745.0,743.0,766.0,721.0
744.0,741.0,762.0,718.0
744.0,742.0,751.0,711.0
742.0,740.0,740.0,705.0
741.0,741.0,734.0,706.0
741.0,739.0,729.0,709.0
741.0,740.0,732.0,714.0
743.0,741.0,751.0,717.0
745.0,741.0,761.0,722.0
746.0,743.0,763.0,724.0
747.0,744.0,767.0,724.0
749.0,747.0,772.0,726.0
750.0,747.0,770.0,725.0
751.0,747.0,769.0,727.0
749.0,746.0,770.0,727.0
749.0,745.0,769.0,729.0
748.0,744.0,759.0,723.0
747.0,744.0,753.0,721.0
746.0,742.0,757.0,722.0
745.0,743.0,757.0,728.0
744.0,742.0,751.0,727.0
744.0,741.0,745.0,724.0
744.0,740.0,737.0,723.0
743.0,740.0,733.0,717.0
745.0,742.0,737.0,718.0
747.0,744.0,748.0,718.0
749.0,745.0,760.0,718.0
748.0,747.0,766.0,719.0
751.0,748.0,768.0,721.0
751.0,748.0,763.0,719.0
751.0,749.0,759.0,719.0
750.0,747.0,753.0,722.0
749.0,745.0,747.0,724.0
748.0,744.0,738.0,723.0
747.0,743.0,731.0,724.0
745.0,741.0,728.0,722.0
744.0,741.0,729.0,717.0
744.0,740.0,732.0,710.0
743.0,740.0,733.0,701.0
742.0,740.0,732.0,699.0
744.0,741.0,727.0,701.0
747.0,743.0,726.0,709.0
748.0,745.0,728.0,717.0
750.0,746.0,735.0,726.0
750.0,748.0,741.0,736.0
751.0,748.0,744.0,740.0
751.0,748.0,746.0,736.0
750.0,747.0,746.0,731.0
750.0,746.0,747.0,731.0
749.0,745.0,744.0,730.0
748.0,743.0,742.0,728.0
745.0,743.0,740.0,729.0
744.0,741.0,736.0,727.0
743.0,740.0,732.0,721.0
745.0,740.0,730.0,713.0
743.0,740.0,728.0,709.0
743.0,740.0,729.0,707.0
744.0,742.0,734.0,713.0
744.0,742.0,739.0,713.0
747.0,745.0,740.0,718.0
750.0,746.0,742.0,726.0
753.0,749.0,744.0,730.0
753.0,748.0,744.0,730.0
753.0,749.0,747.0,728.0
752.0,748.0,747.0,725.0
751.0,746.0,748.0,722.0
749.0,744.0,746.0,721.0
748.0,743.0,745.0,720.0
749.0,741.0,743.0,719.0
744.0,741.0,741.0,716.0
744.0,740.0,738.0,715.0
743.0,738.0,737.0,715.0
743.0,739.0,736.0,715.0
745.0,740.0,736.0,715.0
746.0,742.0,738.0,717.0
747.0,744.0,739.0,719.0
749.0,745.0,742.0,721.0
750.0,747.0,746.0,722.0
752.0,748.0,752.0,728.0
751.0,749.0,751.0,729.0
751.0,748.0,751.0,728.0
750.0,745.0,749.0,728.0
749.0,744.0,748.0,725.0
747.0,741.0,746.0,722.0
747.0,741.0,744.0,721.0
747.0,741.0,743.0,718.0
745.0,738.0,740.0,717.0
745.0,737.0,739.0,715.0
743.0,736.0,737.0,712.0
746.0,737.0,736.0,713.0
749.0,739.0,737.0,717.0
751.0,742.0,740.0,720.0
750.0,744.0,743.0,721.0
751.0,746.0,746.0,722.0
752.0,747.0,748.0,726.0
749.0,749.0,750.0,729.0
750.0,751.0,751.0,728.0
751.0,749.0,749.0,728.0
751.0,747.0,749.0,727.0
749.0,746.0,747.0,724.0
748.0,744.0,745.0,722.0
747.0,742.0,742.0,718.0
747.0,742.0,741.0,717.0
745.0,739.0,738.0,713.0
746.0,738.0,737.0,713.0
746.0,737.0,735.0,713.0
745.0,736.0,735.0,712.0
747.0,738.0,738.0,712.0
748.0,741.0,743.0,714.0
749.0,743.0,747.0,716.0
751.0,747.0,748.0,716.0
754.0,749.0,750.0,720.0
754.0,749.0,751.0,726.0
755.0,751.0,750.0,731.0
751.0,751.0,748.0,732.0
750.0,749.0,745.0,732.0
749.0,747.0,745.0,732.0
748.0,745.0,744.0,730.0
745.0,742.0,742.0,722.0
745.0,741.0,739.0,717.0
747.0,739.0,737.0,713.0
746.0,739.0,737.0,712.0
745.0,739.0,735.0,714.0
746.0,740.0,735.0,714.0
749.0,742.0,739.0,718.0
750.0,746.0,741.0,720.0
752.0,748.0,745.0,724.0
754.0,746.0,746.0,726.0
757.0,742.0,750.0,729.0
757.0,741.0,748.0,730.0
757.0,742.0,748.0,730.0
757.0,743.0,747.0,728.0
751.0,745.0,745.0,725.0
745.0,743.0,742.0,720.0
744.0,742.0,740.0,718.0
746.0,743.0,738.0,717.0
746.0,744.0,736.0,716.0
746.0,745.0,736.0,716.0
745.0,744.0,734.0,715.0
745.0,743.0,734.0,718.0
747.0,744.0,736.0,721.0
749.0,745.0,738.0,726.0
750.0,746.0,738.0,726.0
753.0,747.0,742.0,725.0
754.0,749.0,747.0,727.0
754.0,749.0,750.0,728.0
754.0,750.0,751.0,728.0
753.0,749.0,751.0,727.0
751.0,748.0,752.0,725.0
750.0,745.0,748.0,724.0
749.0,744.0,748.0,724.0
748.0,742.0,744.0,721.0
746.0,742.0,743.0,715.0
746.0,741.0,740.0,708.0
746.0,740.0,737.0,705.0
746.0,740.0,736.0,704.0
746.0,740.0,736.0,705.0
748.0,742.0,736.0,712.0
749.0,744.0,739.0,726.0
751.0,745.0,741.0,737.0
753.0,747.0,745.0,738.0
755.0,748.0,750.0,737.0
754.0,747.0,756.0,736.0
754.0,748.0,760.0,735.0
753.0,748.0,763.0,733.0
752.0,746.0,762.0,727.0
751.0,744.0,761.0,725.0
750.0,744.0,757.0,725.0
748.0,741.0,753.0,723.0
747.0,741.0,746.0,723.0
746.0,740.0,739.0,721.0
745.0,740.0,735.0,720.0
745.0,740.0,730.0,720.0
747.0,742.0,727.0,719.0
749.0,743.0,730.0,723.0
750.0,745.0,734.0,725.0
752.0,745.0,738.0,727.0
752.0,746.0,741.0,729.0
756.0,748.0,745.0,731.0
755.0,748.0,746.0,731.0
755.0,748.0,747.0,730.0
753.0,746.0,748.0,726.0
752.0,745.0,748.0,723.0
749.0,744.0,747.0,719.0
750.0,743.0,743.0,715.0
748.0,743.0,740.0,715.0
748.0,741.0,735.0,717.0
749.0,741.0,732.0,719.0
748.0,741.0,728.0,720.0
747.0,741.0,726.0,721.0
749.0,742.0,728.0,722.0
749.0,745.0,734.0,730.0
750.0,745.0,740.0,733.0
751.0,746.0,746.0,736.0
754.0,748.0,747.0,740.0
754.0,748.0,747.0,737.0
755.0,749.0,748.0,732.0
754.0,747.0,749.0,730.0
752.0,746.0,750.0,727.0
751.0,744.0,748.0,723.0
749.0,744.0,743.0,721.0
749.0,741.0,739.0,717.0
748.0,741.0,736.0,719.0
747.0,737.0,732.0,719.0
746.0,735.0,731.0,717.0
745.0,734.0,729.0,715.0
745.0,735.0,730.0,714.0
748.0,739.0,732.0,726.0
749.0,741.0,736.0,738.0
751.0,743.0,741.0,739.0
753.0,745.0,747.0,733.0
756.0,747.0,751.0,736.0
759.0,747.0,752.0,737.0
758.0,744.0,752.0,739.0
760.0,741.0,751.0,734.0
763.0,741.0,749.0,729.0
765.0,742.0,746.0,724.0
764.0,742.0,745.0,721.0
760.0,742.0,744.0,718.0
755.0,742.0,742.0,717.0
751.0,742.0,739.0,722.0
734.0,742.0,739.0,725.0
727.0,743.0,738.0,726.0
739.0,746.0,738.0,726.0
749.0,748.0,739.0,727.0
752.0,749.0,742.0,728.0
754.0,750.0,746.0,730.0
751.0,749.0,748.0,733.0
750.0,750.0,750.0,734.0
752.0,751.0,750.0,736.0
752.0,749.0,750.0,735.0
750.0,749.0,749.0,734.0
749.0,746.0,747.0,732.0
749.0,745.0,745.0,730.0
748.0,744.0,742.0,728.0
748.0,743.0,741.0,727.0
746.0,742.0,738.0,723.0
746.0,742.0,737.0,723.0
746.0,740.0,736.0,721.0
745.0,741.0,737.0,721.0
749.0,743.0,739.0,722.0
750.0,745.0,742.0,727.0
750.0,745.0,745.0,729.0
753.0,747.0,746.0,732.0
754.0,748.0,750.0,735.0
754.0,749.0,749.0,735.0
755.0,749.0,751.0,736.0
754.0,748.0,749.0,735.0
752.0,747.0,748.0,734.0
751.0,745.0,745.0,732.0
749.0,744.0,749.0,730.0
749.0,742.0,744.0,728.0
748.0,742.0,744.0,725.0
747.0,742.0,743.0,724.0
747.0,740.0,742.0,723.0
747.0,740.0,737.0,722.0
748.0,741.0,735.0,721.0
750.0,743.0,735.0,725.0
750.0,743.0,739.0,728.0
752.0,745.0,742.0,731.0
754.0,747.0,745.0,733.0
755.0,749.0,746.0,735.0
755.0,748.0,746.0,736.0
755.0,749.0,744.0,737.0
753.0,746.0,745.0,737.0
752.0,745.0,745.0,735.0
750.0,744.0,745.0,731.0
750.0,743.0,744.0,729.0
749.0,742.0,744.0,726.0
748.0,741.0,741.0,726.0
748.0,740.0,739.0,726.0
747.0,739.0,737.0,722.0
747.0,740.0,736.0,722.0
748.0,741.0,737.0,724.0
750.0,743.0,740.0,728.0
751.0,745.0,742.0,730.0
753.0,747.0,746.0,732.0
755.0,748.0,747.0,735.0
756.0,749.0,750.0,738.0
755.0,749.0,751.0,738.0
755.0,747.0,750.0,738.0
753.0,747.0,749.0,737.0
751.0,745.0,746.0,734.0
751.0,744.0,749.0,728.0
751.0,743.0,750.0,723.0
749.0,743.0,750.0,719.0
748.0,741.0,747.0,715.0
748.0,741.0,745.0,712.0
748.0,741.0,742.0,713.0
748.0,741.0,739.0,713.0
750.0,742.0,736.0,720.0
751.0,744.0,734.0,728.0
752.0,744.0,734.0,735.0
754.0,747.0,737.0,739.0
757.0,749.0,744.0,742.0
756.0,749.0,748.0,742.0
756.0,750.0,748.0,744.0
754.0,748.0,747.0,750.0
753.0,747.0,745.0,748.0
751.0,745.0,742.0,742.0
750.0,744.0,741.0,739.0
750.0,743.0,742.0,733.0
749.0,742.0,740.0,731.0
749.0,741.0,739.0,728.0
747.0,740.0,738.0,721.0
749.0,740.0,737.0,716.0
748.0,741.0,737.0,715.0
750.0,742.0,739.0,719.0
751.0,742.0,741.0,726.0
755.0,744.0,741.0,735.0
755.0,745.0,743.0,746.0
756.0,748.0,746.0,753.0
756.0,748.0,748.0,750.0
755.0,746.0,748.0,748.0
753.0,744.0,748.0,745.0
754.0,743.0,747.0,740.0
750.0,742.0,745.0,735.0
750.0,742.0,744.0,733.0
748.0,743.0,742.0,731.0
748.0,741.0,740.0,728.0
748.0,740.0,741.0,727.0
747.0,740.0,739.0,726.0
747.0,741.0,737.0,726.0
749.0,743.0,738.0,727.0
750.0,744.0,741.0,731.0
752.0,746.0,742.0,734.0
754.0,749.0,746.0,735.0
756.0,749.0,746.0,738.0
756.0,748.0,749.0,739.0
754.0,747.0,750.0,740.0
754.0,745.0,750.0,740.0
753.0,745.0,750.0,740.0
753.0,744.0,747.0,738.0
752.0,744.0,745.0,736.0
750.0,743.0,743.0,733.0
749.0,742.0,740.0,731.0
747.0,740.0,738.0,728.0
747.0,740.0,737.0,726.0
747.0,740.0,736.0,726.0
746.0,740.0,736.0,724.0
749.0,742.0,738.0,727.0
750.0,744.0,740.0,730.0
752.0,744.0,744.0,733.0
753.0,748.0,745.0,737.0
755.0,748.0,748.0,742.0
756.0,749.0,749.0,743.0
757.0,750.0,750.0,744.0
755.0,749.0,749.0,743.0
754.0,748.0,748.0,742.0
751.0,747.0,745.0,738.0
750.0,745.0,743.0,736.0
749.0,744.0,740.0,732.0
749.0,742.0,739.0,730.0
749.0,741.0,740.0,729.0
747.0,741.0,739.0,727.0
748.0,741.0,738.0,727.0
748.0,743.0,738.0,730.0
751.0,744.0,741.0,732.0
751.0,745.0,743.0,735.0
754.0,746.0,747.0,737.0
753.0,748.0,748.0,737.0
756.0,749.0,752.0,737.0
756.0,749.0,754.0,734.0
757.0,748.0,752.0,731.0
757.0,748.0,751.0,726.0
758.0,746.0,748.0,724.0
757.0,740.0,745.0,723.0
753.0,734.0,743.0,726.0
746.0,734.0,740.0,730.0
742.0,734.0,736.0,737.0
744.0,736.0,734.0,744.0
745.0,738.0,735.0,745.0
749.0,739.0,735.0,744.0
752.0,744.0,737.0,743.0
755.0,745.0,742.0,742.0
755.0,746.0,743.0,740.0
754.0,747.0,746.0,739.0
756.0,748.0,749.0,742.0
756.0,746.0,751.0,744.0
752.0,747.0,752.0,745.0
751.0,746.0,750.0,745.0
751.0,746.0,749.0,743.0
750.0,747.0,746.0,741.0
749.0,747.0,744.0,738.0
748.0,747.0,741.0,736.0
750.0,747.0,739.0,734.0
750.0,745.0,736.0,731.0
754.0,742.0,736.0,731.0
758.0,739.0,736.0,730.0
763.0,739.0,737.0,727.0
767.0,742.0,741.0,730.0
768.0,745.0,743.0,732.0
765.0,745.0,746.0,733.0
746.0,748.0,747.0,737.0
741.0,750.0,749.0,740.0
742.0,751.0,750.0,741.0
749.0,752.0,752.0,743.0
749.0,751.0,751.0,744.0
750.0,748.0,750.0,744.0
749.0,744.0,748.0,742.0
749.0,742.0,745.0,740.0
748.0,742.0,741.0,737.0
746.0,740.0,740.0,736.0
746.0,740.0,737.0,734.0
746.0,739.0,735.0,732.0
745.0,739.0,735.0,731.0
746.0,742.0,736.0,731.0
749.0,745.0,739.0,734.0
750.0,749.0,741.0,740.0
752.0,751.0,746.0,747.0
754.0,751.0,749.0,748.0
755.0,751.0,750.0,747.0
754.0,751.0,754.0,745.0
755.0,749.0,755.0,743.0
754.0,749.0,757.0,741.0
754.0,747.0,755.0,740.0
751.0,746.0,753.0,738.0
750.0,744.0,749.0,737.0
750.0,744.0,743.0,737.0
749.0,742.0,739.0,735.0
748.0,742.0,736.0,738.0
748.0,741.0,733.0,740.0
747.0,741.0,730.0,738.0
748.0,743.0,733.0,736.0
750.0,744.0,742.0,736.0
750.0,749.0,746.0,738.0
753.0,747.0,749.0,742.0
755.0,748.0,751.0,745.0
753.0,748.0,751.0,745.0
754.0,749.0,751.0,747.0
754.0,748.0,749.0,745.0
753.0,747.0,748.0,743.0
751.0,746.0,746.0,739.0
750.0,745.0,745.0,738.0
749.0,743.0,743.0,735.0
749.0,742.0,742.0,733.0
747.0,741.0,738.0,731.0
748.0,741.0,737.0,728.0
748.0,740.0,740.0,720.0
748.0,741.0,742.0,718.0
749.0,744.0,744.0,716.0
752.0,745.0,745.0,713.0
753.0,747.0,743.0,714.0
755.0,748.0,744.0,717.0
756.0,750.0,745.0,728.0
756.0,749.0,744.0,744.0
756.0,748.0,745.0,757.0
754.0,748.0,745.0,761.0
752.0,746.0,745.0,766.0
752.0,744.0,749.0,766.0
749.0,744.0,750.0,758.0
748.0,742.0,745.0,750.0
748.0,742.0,743.0,744.0
748.0,742.0,741.0,740.0
747.0,741.0,739.0,736.0
747.0,741.0,738.0,736.0
749.0,742.0,739.0,735.0
750.0,744.0,742.0,738.0
751.0,744.0,744.0,741.0
753.0,746.0,746.0,745.0
755.0,747.0,748.0,747.0
756.0,748.0,751.0,748.0
756.0,748.0,752.0,746.0
755.0,747.0,752.0,746.0
754.0,747.0,752.0,744.0
752.0,745.0,751.0,743.0
751.0,745.0,747.0,741.0
749.0,743.0,744.0,737.0
750.0,742.0,743.0,737.0
747.0,742.0,741.0,734.0
747.0,742.0,740.0,734.0
747.0,740.0,739.0,734.0
747.0,741.0,738.0,735.0
750.0,742.0,741.0,738.0
752.0,743.0,743.0,742.0
753.0,745.0,744.0,742.0
753.0,746.0,746.0,746.0
754.0,747.0,747.0,748.0
755.0,745.0,749.0,748.0
757.0,745.0,752.0,747.0
754.0,744.0,751.0,745.0
752.0,745.0,750.0,745.0
750.0,744.0,747.0,745.0
749.0,739.0,746.0,744.0
747.0,736.0,743.0,742.0
747.0,737.0,740.0,738.0
748.0,737.0,738.0,736.0
747.0,735.0,738.0,734.0
750.0,735.0,737.0,735.0
750.0,735.0,739.0,733.0
750.0,738.0,742.0,736.0
753.0,744.0,743.0,740.0
756.0,749.0,746.0,744.0
757.0,755.0,748.0,745.0
760.0,756.0,751.0,749.0
762.0,752.0,753.0,749.0
762.0,751.0,752.0,750.0
757.0,749.0,751.0,749.0
751.0,746.0,748.0,747.0
749.0,744.0,745.0,744.0
751.0,744.0,741.0,743.0
748.0,744.0,736.0,737.0
741.0,743.0,734.0,734.0
744.0,743.0,735.0,733.0
748.0,744.0,734.0,730.0
749.0,744.0,735.0,731.0
749.0,745.0,733.0,738.0
754.0,747.0,737.0,742.0
759.0,749.0,742.0,741.0
762.0,750.0,749.0,741.0
751.0,751.0,754.0,745.0
745.0,751.0,758.0,749.0
754.0,753.0,758.0,749.0
758.0,751.0,758.0,746.0
756.0,750.0,757.0,740.0
757.0,747.0,757.0,732.0
758.0,745.0,753.0,729.0
756.0,743.0,749.0,723.0
753.0,744.0,745.0,722.0
751.0,743.0,737.0,721.0
749.0,743.0,732.0,724.0
742.0,742.0,728.0,737.0
740.0,742.0,728.0,752.0
745.0,745.0,727.0,757.0
749.0,746.0,725.0,760.0
748.0,747.0,734.0,759.0
750.0,750.0,738.0,756.0
757.0,751.0,745.0,754.0
759.0,749.0,750.0,753.0
757.0,750.0,754.0,758.0
754.0,748.0,758.0,760.0
750.0,747.0,756.0,755.0
746.0,744.0,754.0,744.0
746.0,744.0,753.0,744.0
745.0,743.0,747.0,742.0
744.0,742.0,745.0,737.0
746.0,742.0,744.0,733.0
745.0,741.0,742.0,731.0
746.0,741.0,743.0,737.0
749.0,741.0,743.0,737.0
750.0,743.0,745.0,738.0
751.0,745.0,747.0,740.0
754.0,746.0,751.0,741.0
755.0,749.0,752.0,745.0
757.0,751.0,754.0,747.0
756.0,752.0,755.0,746.0
756.0,751.0,754.0,749.0
754.0,749.0,751.0,749.0
758.0,747.0,748.0,743.0
748.0,746.0,742.0,741.0
747.0,742.0,741.0,739.0
745.0,743.0,739.0,737.0
743.0,740.0,739.0,731.0
742.0,741.0,739.0,728.0
743.0,740.0,735.0,720.0
745.0,740.0,734.0,726.0
749.0,743.0,734.0,741.0
754.0,744.0,740.0,748.0
757.0,744.0,743.0,744.0
760.0,746.0,747.0,744.0
759.0,747.0,752.0,756.0
757.0,747.0,752.0,759.0
756.0,747.0,748.0,760.0
757.0,746.0,745.0,757.0
755.0,746.0,743.0,757.0
755.0,746.0,737.0,750.0
761.0,747.0,735.0,745.0
760.0,745.0,735.0,740.0
766.0,744.0,734.0,739.0
766.0,741.0,731.0,736.0
766.0,738.0,731.0,739.0
759.0,731.0,734.0,739.0
743.0,726.0,739.0,738.0
725.0,728.0,748.0,739.0
729.0,734.0,758.0,742.0
742.0,741.0,759.0,746.0
753.0,748.0,755.0,752.0
760.0,751.0,751.0,755.0
762.0,749.0,745.0,762.0
766.0,748.0,745.0,765.0
759.0,750.0,749.0,757.0
753.0,753.0,754.0,747.0
754.0,752.0,754.0,736.0
761.0,750.0,748.0,719.0
768.0,748.0,736.0,705.0
782.0,749.0,724.0,704.0
771.0,753.0,719.0,711.0
756.0,752.0,722.0,723.0
736.0,750.0,729.0,734.0
728.0,748.0,730.0,759.0
726.0,748.0,736.0,770.0
730.0,749.0,744.0,766.0
745.0,747.0,753.0,770.0
751.0,745.0,754.0,767.0
753.0,746.0,757.0,763.0
752.0,746.0,760.0,759.0
750.0,746.0,761.0,761.0
747.0,746.0,764.0,759.0
750.0,745.0,760.0,755.0
753.0,745.0,750.0,754.0
755.0,743.0,745.0,751.0
757.0,741.0,737.0,745.0
757.0,742.0,736.0,738.0
756.0,744.0,737.0,734.0
755.0,744.0,739.0,736.0
750.0,744.0,740.0,740.0
752.0,745.0,739.0,742.0
758.0,748.0,738.0,743.0
743.0,747.0,744.0,744.0
737.0,748.0,748.0,734.0
750.0,747.0,752.0,718.0
755.0,747.0,751.0,713.0
750.0,749.0,750.0,724.0
755.0,749.0,746.0,727.0
757.0,749.0,744.0,726.0
755.0,747.0,740.0,723.0
754.0,746.0,726.0,730.0
753.0,747.0,712.0,741.0
750.0,745.0,717.0,753.0
753.0,745.0,728.0,754.0
750.0,744.0,744.0,763.0
741.0,742.0,751.0,769.0
750.0,739.0,756.0,772.0
745.0,738.0,761.0,771.0
743.0,740.0,763.0,775.0
748.0,746.0,758.0,767.0
754.0,751.0,754.0,760.0
748.0,752.0,750.0,758.0
746.0,748.0,749.0,752.0
747.0,746.0,746.0,754.0
750.0,743.0,741.0,756.0
752.0,739.0,733.0,761.0
762.0,740.0,732.0,767.0
771.0,744.0,735.0,764.0
776.0,745.0,740.0,747.0
773.0,749.0,743.0,729.0
772.0,757.0,739.0,726.0
756.0,752.0,737.0,727.0
730.0,746.0,736.0,722.0
727.0,743.0,730.0,724.0
739.0,739.0,740.0,736.0
744.0,737.0,752.0,753.0
758.0,743.0,759.0,749.0
763.0,750.0,761.0,747.0
760.0,753.0,759.0,751.0
755.0,753.0,762.0,752.0
754.0,754.0,765.0,743.0
763.0,753.0,764.0,747.0
772.0,751.0,755.0,756.0
755.0,749.0,735.0,754.0
735.0,743.0,718.0,743.0
744.0,742.0,705.0,731.0
744.0,739.0,702.0,729.0
742.0,737.0,711.0,728.0
745.0,734.0,734.0,738.0
752.0,736.0,745.0,745.0
757.0,736.0,739.0,749.0
750.0,739.0,726.0,758.0
750.0,742.0,722.0,764.0
756.0,745.0,728.0,780.0
756.0,751.0,746.0,782.0
752.0,752.0,768.0,774.0
750.0,751.0,781.0,764.0
760.0,750.0,780.0,747.0
772.0,747.0,767.0,729.0
769.0,742.0,737.0,732.0
765.0,743.0,718.0,726.0
756.0,748.0,700.0,723.0
756.0,751.0,688.0,727.0
755.0,750.0,690.0,753.0
755.0,747.0,710.0,773.0
752.0,740.0,738.0,770.0
730.0,732.0,758.0,750.0
732.0,733.0,752.0,738.0
740.0,741.0,742.0,739.0
755.0,748.0,741.0,745.0
752.0,751.0,744.0,756.0
748.0,755.0,749.0,778.0
752.0,756.0,754.0,779.0
750.0,751.0,758.0,774.0
755.0,744.0,761.0,767.0
752.0,739.0,781.0,760.0
751.0,736.0,780.0,762.0
749.0,733.0,766.0,756.0
742.0,736.0,751.0,755.0
741.0,743.0,744.0,741.0
743.0,744.0,749.0,733.0
751.0,747.0,750.0,730.0
762.0,749.0,749.0,728.0
771.0,748.0,740.0,729.0
757.0,745.0,729.0,736.0
749.0,743.0,733.0,741.0
763.0,745.0,742.0,743.0
760.0,744.0,752.0,747.0
757.0,744.0,760.0,743.0
756.0,744.0,767.0,734.0
757.0,745.0,767.0,731.0
760.0,746.0,757.0,746.0
758.0,749.0,719.0,755.0
760.0,749.0,681.0,749.0
761.0,747.0,675.0,750.0
750.0,744.0,694.0,759.0
751.0,743.0,711.0,746.0
742.0,744.0,726.0,758.0
730.0,742.0,759.0,755.0
732.0,757.0,784.0,757.0
731.0,767.0,792.0,771.0
745.0,769.0,766.0,777.0
752.0,773.0,737.0,764.0
760.0,774.0,725.0,762.0
757.0,764.0,722.0,753.0
755.0,749.0,725.0,748.0
756.0,740.0,758.0,747.0
769.0,734.0,790.0,749.0
769.0,730.0,791.0,735.0
761.0,732.0,771.0,727.0
767.0,735.0,757.0,724.0
760.0,737.0,745.0,729.0
745.0,742.0,737.0,735.0
749.0,748.0,737.0,753.0
758.0,747.0,740.0,775.0
758.0,744.0,749.0,795.0
740.0,736.0,763.0,794.0
731.0,731.0,767.0,789.0
738.0,733.0,749.0,768.0
743.0,737.0,734.0,755.0
757.0,740.0,727.0,752.0
761.0,743.0,726.0,754.0
754.0,745.0,730.0,758.0
744.0,748.0,746.0,771.0
752.0,751.0,755.0,787.0
746.0,749.0,744.0,775.0
742.0,745.0,736.0,756.0
748.0,746.0,731.0,729.0
750.0,748.0,717.0,704.0
741.0,747.0,712.0,690.0
738.0,752.0,733.0,703.0
739.0,753.0,742.0,725.0
743.0,749.0,749.0,752.0
745.0,741.0,760.0,768.0
749.0,745.0,765.0,778.0
745.0,746.0,769.0,776.0
753.0,747.0,775.0,787.0
763.0,748.0,759.0,781.0
770.0,746.0,750.0,780.0
776.0,746.0,752.0,762.0
775.0,744.0,754.0,731.0
768.0,744.0,745.0,725.0
766.0,746.0,734.0,716.0
758.0,746.0,728.0,712.0
762.0,750.0,720.0,722.0
752.0,752.0,717.0,757.0
748.0,752.0,718.0,786.0
753.0,754.0,727.0,789.0
750.0,752.0,726.0,783.0
758.0,749.0,741.0,775.0
772.0,748.0,759.0,769.0
742.0,747.0,750.0,762.0
728.0,746.0,738.0,739.0
751.0,743.0,734.0,752.0
778.0,742.0,742.0,773.0
788.0,741.0,769.0,774.0
773.0,743.0,781.0,766.0
753.0,742.0,780.0,763.0
730.0,739.0,765.0,749.0
721.0,734.0,745.0,720.0
733.0,736.0,721.0,688.0
741.0,737.0,680.0,684.0
745.0,741.0,663.0,710.0
746.0,742.0,652.0,753.0
748.0,741.0,652.0,824.0
745.0,740.0,710.0,854.0
746.0,745.0,789.0,825.0
763.0,747.0,841.0,789.0
763.0,742.0,846.0,762.0
769.0,747.0,828.0,752.0
772.0,754.0,820.0,737.0
753.0,750.0,805.0,725.0
733.0,743.0,795.0,729.0
726.0,746.0,785.0,751.0
737.0,746.0,756.0,761.0
751.0,743.0,723.0,786.0
775.0,739.0,691.0,772.0
775.0,737.0,668.0,740.0
771.0,735.0,680.0,696.0
749.0,734.0,703.0,695.0
737.0,737.0,736.0,733.0
726.0,743.0,763.0,774.0
729.0,749.0,785.0,793.0
748.0,751.0,774.0,790.0
762.0,760.0,748.0,787.0
762.0,761.0,740.0,779.0
787.0,762.0,729.0,754.0
791.0,769.0,712.0,738.0
756.0,758.0,720.0,730.0
744.0,747.0,736.0,707.0
750.0,747.0,747.0,714.0
734.0,741.0,768.0,760.0
725.0,727.0,786.0,786.0
742.0,725.0,771.0,786.0
770.0,728.0,749.0,785.0
769.0,734.0,740.0,792.0
741.0,737.0,737.0,774.0
746.0,737.0,745.0,741.0
738.0,738.0,735.0,723.0
746.0,740.0,727.0,714.0
750.0,749.0,728.0,700.0
762.0,759.0,684.0,742.0
786.0,773.0,650.0,798.0
802.0,775.0,669.0,818.0
789.0,768.0,715.0,842.0
791.0,761.0,766.0,837.0
766.0,747.0,833.0,796.0
717.0,736.0,852.0,781.0
706.0,735.0,818.0,763.0
706.0,738.0,775.0,758.0
705.0,739.0,746.0,748.0
715.0,736.0,746.0,734.0
743.0,737.0,754.0,711.0
767.0,740.0,755.0,687.0
775.0,744.0,756.0,650.0
788.0,746.0,751.0,652.0
784.0,747.0,747.0,656.0
744.0,754.0,736.0,714.0
724.0,759.0,721.0,841.0
727.0,756.0,733.0,931.0
736.0,752.0,771.0,892.0
750.0,753.0,790.0,834.0
750.0,751.0,781.0,800.0
748.0,754.0,756.0,769.0
751.0,758.0,716.0,749.0
752.0,753.0,689.0,724.0
756.0,748.0,683.0,716.0
764.0,743.0,697.0,724.0
750.0,734.0,745.0,717.0
737.0,727.0,789.0,698.0
725.0,734.0,780.0,696.0
736.0,740.0,714.0,714.0
751.0,742.0,695.0,749.0
751.0,744.0,699.0,740.0
750.0,745.0,710.0,744.0
749.0,747.0,754.0,771.0
747.0,751.0,790.0,804.0
755.0,763.0,798.0,806.0
780.0,766.0,777.0,810.0
789.0,759.0,751.0,808.0
812.0,751.0,733.0,759.0
820.0,743.0,741.0,751.0
828.0,737.0,764.0,771.0
820.0,737.0,796.0,768.0
744.0,743.0,794.0,772.0
689.0,748.0,754.0,765.0
686.0,738.0,724.0,743.0
710.0,732.0,713.0,707.0
733.0,726.0,702.0,662.0
733.0,726.0,691.0,657.0
744.0,730.0,700.0,701.0
756.0,738.0,768.0,729.0
748.0,742.0,801.0,761.0
734.0,751.0,752.0,809.0
747.0,768.0,734.0,845.0
754.0,763.0,749.0,796.0
760.0,757.0,762.0,760.0
759.0,750.0,745.0,778.0
758.0,739.0,723.0,800.0
754.0,730.0,730.0,772.0
741.0,726.0,736.0,765.0
733.0,725.0,728.0,797.0
722.0,721.0,740.0,782.0
710.0,720.0,757.0,763.0
723.0,730.0,749.0,744.0
737.0,740.0,748.0,688.0
744.0,746.0,733.0,614.0
754.0,755.0,735.0,605.0
758.0,760.0,740.0,638.0
756.0,760.0,723.0,699.0
758.0,756.0,685.0,821.0
750.0,754.0,685.0,903.0
751.0,752.0,753.0,874.0
761.0,752.0,797.0,837.0
762.0,758.0,809.0,810.0
765.0,761.0,787.0,802.0
769.0,759.0,771.0,812.0
748.0,757.0,781.0,780.0
747.0,750.0,795.0,741.0
742.0,747.0,793.0,731.0
751.0,747.0,781.0,754.0
764.0,762.0,765.0,753.0
764.0,775.0,724.0,731.0
771.0,768.0,697.0,710.0
766.0,754.0,688.0,670.0
762.0,741.0,686.0,620.0
763.0,736.0,690.0,626.0
785.0,736.0,708.0,660.0
781.0,742.0,725.0,761.0
770.0,744.0,764.0,859.0
750.0,739.0,789.0,904.0
749.0,742.0,790.0,878.0
752.0,746.0,784.0,819.0
725.0,743.0,784.0,768.0
711.0,741.0,779.0,730.0
713.0,738.0,753.0,726.0
709.0,729.0,725.0,708.0
715.0,728.0,704.0,701.0
729.0,733.0,670.0,692.0
738.0,734.0,651.0,696.0
752.0,740.0,678.0,703.0
757.0,744.0,699.0,745.0
768.0,742.0,708.0,787.0
769.0,738.0,782.0,826.0
748.0,743.0,841.0,839.0
755.0,748.0,835.0,804.0
759.0,751.0,829.0,765.0
748.0,744.0,808.0,758.0
747.0,742.0,785.0,767.0
754.0,740.0,766.0,743.0
760.0,742.0,749.0,704.0
784.0,743.0,727.0,683.0
757.0,744.0,710.0,658.0
728.0,745.0,702.0,670.0
747.0,745.0,707.0,734.0
743.0,741.0,708.0,817.0
735.0,737.0,689.0,834.0
758.0,741.0,731.0,794.0
770.0,754.0,750.0,777.0
766.0,759.0,748.0,767.0
756.0,754.0,760.0,771.0
743.0,748.0,800.0,772.0
723.0,741.0,804.0,769.0
727.0,733.0,787.0,759.0
745.0,742.0,776.0,761.0
757.0,752.0,771.0,730.0
757.0,755.0,763.0,695.0
759.0,754.0,773.0,672.0
751.0,755.0,764.0,674.0
742.0,755.0,732.0,716.0
743.0,751.0,686.0,764.0
737.0,746.0,647.0,808.0
740.0,741.0,638.0,805.0
733.0,743.0,680.0,808.0
743.0,744.0,743.0,806.0
737.0,745.0,788.0,738.0
739.0,743.0,833.0,703.0
747.0,742.0,845.0,698.0
754.0,746.0,824.0,723.0
757.0,752.0,784.0,751.0
762.0,754.0,746.0,804.0
770.0,752.0,723.0,796.0
785.0,751.0,733.0,775.0
791.0,750.0,729.0,751.0
775.0,743.0,712.0,741.0
742.0,739.0,703.0,738.0
716.0,739.0,701.0,727.0
710.0,745.0,716.0,715.0
717.0,747.0,741.0,708.0
737.0,745.0,757.0,743.0
745.0,745.0,779.0,750.0
760.0,745.0,795.0,722.0
768.0,755.0,777.0,703.0
761.0,764.0,756.0,748.0
763.0,765.0,738.0,750.0
742.0,758.0,736.0,765.0
732.0,748.0,748.0,805.0
731.0,741.0,761.0,798.0
745.0,739.0,751.0,728.0
753.0,743.0,719.0,687.0
772.0,750.0,693.0,707.0
760.0,745.0,683.0,779.0
766.0,740.0,700.0,794.0
761.0,733.0,759.0,782.0
750.0,727.0,792.0,752.0
747.0,723.0,759.0,762.0
759.0,729.0,740.0,741.0
766.0,742.0,731.0,705.0
762.0,748.0,718.0,692.0
758.0,749.0,740.0,698.0
746.0,748.0,761.0,721.0
735.0,748.0,766.0,759.0
763.0,753.0,782.0,759.0
768.0,759.0,778.0,755.0
729.0,756.0,751.0,802.0
713.0,753.0,719.0,831.0
725.0,746.0,715.0,795.0
727.0,742.0,729.0,746.0
729.0,740.0,747.0,739.0
738.0,739.0,756.0,754.0
738.0,740.0,784.0,747.0
752.0,741.0,791.0,727.0
794.0,739.0,772.0,737.0
809.0,737.0,782.0,710.0
797.0,757.0,790.0,662.0
770.0,769.0,768.0,661.0
796.0,762.0,754.0,663.0
762.0,753.0,747.0,704.0
753.0,741.0,705.0,829.0
742.0,731.0,658.0,884.0
726.0,729.0,668.0,874.0
747.0,733.0,690.0,828.0
733.0,730.0,730.0,770.0
734.0,740.0,755.0,746.0
731.0,745.0,778.0,739.0
699.0,746.0,804.0,733.0
705.0,745.0,813.0,699.0
727.0,744.0,796.0,664.0
742.0,745.0,766.0,651.0
746.0,747.0,760.0,650.0
749.0,749.0,738.0,658.0
750.0,750.0,708.0,728.0
749.0,752.0,685.0,806.0
745.0,750.0,682.0,835.0
745.0,749.0,704.0,818.0
748.0,750.0,748.0,790.0
748.0,752.0,778.0,790.0
745.0,751.0,782.0,802.0
741.0,748.0,783.0,753.0
742.0,746.0,770.0,691.0
762.0,749.0,742.0,666.0
762.0,754.0,733.0,650.0
754.0,757.0,740.0,678.0
762.0,752.0,741.0,796.0
762.0,746.0,726.0,847.0
747.0,742.0,722.0,833.0
731.0,736.0,736.0,795.0
736.0,737.0,748.0,774.0
741.0,738.0,771.0,765.0
748.0,740.0,803.0,767.0
757.0,744.0,810.0,740.0
753.0,747.0,797.0,709.0
755.0,749.0,752.0,685.0
762.0,752.0,734.0,671.0
746.0,753.0,706.0,654.0
753.0,754.0,696.0,694.0
753.0,752.0,718.0,725.0
748.0,747.0,767.0,777.0
744.0,743.0,777.0,842.0
741.0,738.0,731.0,840.0
749.0,739.0,700.0,789.0
754.0,738.0,706.0,790.0
756.0,734.0,711.0,770.0
759.0,730.0,728.0,742.0
765.0,737.0,739.0,743.0
768.0,741.0,762.0,739.0
802.0,744.0,776.0,719.0
791.0,741.0,754.0,717.0
754.0,739.0,730.0,699.0
733.0,746.0,746.0,655.0
711.0,754.0,749.0,643.0
711.0,756.0,753.0,683.0
742.0,753.0,777.0,730.0
750.0,763.0,798.0,833.0
746.0,767.0,779.0,894.0
738.0,762.0,785.0,863.0
733.0,753.0,811.0,786.0
732.0,744.0,762.0,725.0
738.0,739.0,693.0,687.0
723.0,733.0,670.0,663.0
737.0,732.0,686.0,662.0
748.0,737.0,714.0,716.0
755.0,740.0,757.0,757.0
770.0,740.0,807.0,742.0
767.0,742.0,808.0,743.0
742.0,741.0,761.0,737.0
756.0,741.0,748.0,747.0
750.0,742.0,752.0,776.0
752.0,745.0,735.0,763.0
761.0,753.0,746.0,769.0
755.0,756.0,761.0,776.0
755.0,750.0,758.0,776.0
733.0,740.0,774.0,743.0
747.0,738.0,799.0,717.0
740.0,737.0,783.0,722.0
742.0,739.0,748.0,731.0
755.0,757.0,723.0,745.0
783.0,762.0,703.0,713.0
800.0,751.0,683.0,690.0
780.0,742.0,673.0,749.0
755.0,728.0,679.0,790.0
756.0,719.0,704.0,755.0
735.0,719.0,749.0,720.0
736.0,718.0,764.0,720.0
743.0,722.0,777.0,746.0
739.0,735.0,788.0,739.0
730.0,750.0,781.0,735.0
727.0,759.0,783.0,752.0
739.0,759.0,791.0,733.0
740.0,760.0,800.0,724.0
735.0,756.0,789.0,729.0
727.0,749.0,761.0,744.0
734.0,747.0,719.0,776.0
741.0,749.0,690.0,814.0
745.0,749.0,681.0,834.0
749.0,745.0,699.0,765.0
754.0,745.0,748.0,688.0
755.0,744.0,801.0,660.0
753.0,745.0,812.0,669.0
762.0,752.0,793.0,687.0
788.0,761.0,777.0,706.0
814.0,771.0,742.0,712.0
837.0,769.0,716.0,728.0
808.0,756.0,700.0,766.0
708.0,741.0,691.0,770.0
696.0,738.0,669.0,751.0
696.0,735.0,683.0,761.0
699.0,736.0,724.0,775.0
712.0,735.0,756.0,774.0
724.0,737.0,794.0,753.0
727.0,739.0,831.0,747.0
733.0,740.0,804.0,768.0
737.0,742.0,777.0,773.0
745.0,743.0,759.0,781.0
752.0,750.0,741.0,772.0
749.0,753.0,730.0,734.0
751.0,769.0,725.0,698.0
765.0,780.0,721.0,678.0
766.0,772.0,725.0,688.0
783.0,753.0,738.0,703.0
786.0,735.0,755.0,725.0
762.0,718.0,770.0,736.0
760.0,718.0,762.0,724.0
775.0,725.0,762.0,734.0
763.0,725.0,772.0,767.0
759.0,722.0,765.0,753.0
725.0,725.0,755.0,733.0
707.0,741.0,741.0,737.0
728.0,766.0,712.0,747.0
744.0,777.0,673.0,770.0
757.0,772.0,687.0,767.0
736.0,762.0,708.0,769.0
749.0,760.0,749.0,768.0
750.0,756.0,791.0,763.0
781.0,751.0,832.0,768.0
781.0,746.0,820.0,773.0
748.0,735.0,776.0,729.0
759.0,735.0,738.0,690.0
749.0,730.0,697.0,670.0
735.0,727.0,688.0,696.0
729.0,733.0,707.0,737.0
712.0,736.0,746.0,770.0
726.0,741.0,767.0,773.0
730.0,744.0,768.0,743.0
738.0,747.0,765.0,721.0
743.0,750.0,760.0,705.0
742.0,750.0,767.0,678.0
751.0,753.0,784.0,675.0
771.0,753.0,760.0,721.0
774.0,749.0,730.0,773.0
781.0,742.0,720.0,768.0
781.0,721.0,712.0,775.0
756.0,718.0,700.0,823.0
768.0,720.0,717.0,817.0
760.0,716.0,750.0,772.0
749.0,705.0,778.0,745.0
731.0,705.0,784.0,731.0
725.0,713.0,772.0,718.0
733.0,738.0,789.0,693.0
741.0,758.0,789.0,658.0
755.0,773.0,765.0,617.0
798.0,782.0,752.0,625.0
802.0,781.0,746.0,669.0
793.0,773.0,735.0,768.0
772.0,761.0,718.0,854.0
722.0,753.0,721.0,882.0
710.0,750.0,740.0,841.0
710.0,745.0,739.0,785.0
722.0,741.0,743.0,770.0
735.0,740.0,757.0,760.0
731.0,739.0,739.0,733.0
734.0,737.0,733.0,690.0
729.0,737.0,724.0,666.0
737.0,740.0,700.0,675.0
732.0,741.0,710.0,660.0
737.0,745.0,726.0,655.0
744.0,748.0,749.0,690.0
748.0,749.0,767.0,707.0
748.0,749.0,779.0,742.0
748.0,747.0,799.0,821.0
753.0,745.0,796.0,863.0
755.0,746.0,785.0,835.0
760.0,752.0,782.0,808.0
753.0,756.0,777.0,770.0
750.0,762.0,758.0,740.0
746.0,763.0,760.0,709.0
741.0,760.0,760.0,701.0
749.0,754.0,750.0,708.0
743.0,746.0,738.0,721.0
754.0,744.0,715.0,659.0
755.0,744.0,695.0,654.0
749.0,741.0,716.0,632.0
742.0,738.0,716.0,669.0
741.0,742.0,698.0,806.0
738.0,745.0,712.0,879.0
734.0,748.0,758.0,849.0
735.0,758.0,798.0,788.0
742.0,756.0,797.0,754.0
744.0,746.0,778.0,730.0
758.0,748.0,761.0,703.0
754.0,756.0,750.0,700.0
769.0,751.0,740.0,699.0
787.0,759.0,746.0,697.0
804.0,770.0,748.0,713.0
805.0,771.0,757.0,755.0
805.0,764.0,762.0,765.0
801.0,750.0,759.0,745.0
758.0,718.0,767.0,763.0
741.0,704.0,770.0,798.0
723.0,716.0,749.0,766.0
718.0,729.0,741.0,708.0
706.0,733.0,747.0,703.0
721.0,739.0,739.0,708.0
728.0,746.0,739.0,692.0
749.0,752.0,738.0,698.0
771.0,755.0,733.0,729.0
764.0,751.0,720.0,758.0
746.0,747.0,710.0,794.0
729.0,725.0,712.0,779.0
717.0,704.0,741.0,752.0
725.0,706.0,756.0,740.0
733.0,714.0,724.0,723.0
745.0,709.0,714.0,736.0
753.0,681.0,720.0,756.0
759.0,658.0,738.0,750.0
796.0,683.0,776.0,739.0
797.0,716.0,805.0,742.0
757.0,731.0,806.0,743.0
741.0,728.0,793.0,734.0
715.0,734.0,782.0,725.0
721.0,754.0,785.0,721.0
739.0,785.0,789.0,709.0
742.0,808.0,785.0,721.0
739.0,797.0,767.0,728.0
746.0,787.0,746.0,709.0
748.0,775.0,704.0,703.0
752.0,770.0,666.0,685.0
751.0,763.0,667.0,647.0
761.0,757.0,669.0,661.0
768.0,754.0,674.0,701.0
766.0,752.0,719.0,712.0
780.0,752.0,748.0,748.0
768.0,754.0,757.0,789.0
739.0,749.0,790.0,787.0
718.0,746.0,785.0,762.0
738.0,750.0,749.0,744.0
753.0,752.0,722.0,766.0
759.0,759.0,735.0,783.0
752.0,760.0,764.0,789.0
745.0,750.0,796.0,777.0
729.0,746.0,800.0,747.0
726.0,747.0,781.0,721.0
734.0,749.0,763.0,713.0
741.0,748.0,760.0,703.0
737.0,748.0,757.0,719.0
733.0,749.0,746.0,746.0
732.0,750.0,754.0,733.0
729.0,745.0,753.0,703.0
765.0,742.0,725.0,741.0
777.0,744.0,717.0,782.0
759.0,746.0,741.0,788.0
744.0,745.0,754.0,751.0
732.0,746.0,749.0,741.0
744.0,748.0,752.0,758.0
746.0,748.0,778.0,770.0
744.0,747.0,802.0,736.0
745.0,746.0,817.0,715.0
748.0,747.0,807.0,690.0
750.0,747.0,779.0,691.0
750.0,746.0,731.0,694.0
749.0,746.0,701.0,691.0
748.0,747.0,719.0,720.0
746.0,748.0,746.0,782.0
744.0,743.0,783.0,766.0
741.0,731.0,813.0,725.0
740.0,728.0,795.0,696.0
740.0,732.0,759.0,697.0
731.0,742.0,737.0,713.0
746.0,748.0,723.0,765.0
759.0,747.0,721.0,789.0
778.0,742.0,713.0,764.0
764.0,744.0,709.0,749.0
743.0,752.0,717.0,761.0
737.0,752.0,728.0,750.0
752.0,749.0,751.0,745.0
755.0,749.0,784.0,750.0
759.0,748.0,756.0,742.0
755.0,750.0,721.0,730.0
736.0,751.0,706.0,700.0
742.0,742.0,716.0,683.0
744.0,722.0,756.0,683.0
733.0,714.0,783.0,693.0
746.0,707.0,783.0,704.0
754.0,711.0,766.0,736.0
774.0,721.0,749.0,751.0
831.0,739.0,740.0,753.0
824.0,750.0,746.0,756.0
807.0,774.0,766.0,750.0
761.0,773.0,778.0,731.0
700.0,767.0,775.0,721.0
712.0,765.0,760.0,720.0
714.0,758.0,745.0,713.0
718.0,748.0,740.0,709.0
745.0,740.0,720.0,692.0
751.0,732.0,705.0,721.0
751.0,729.0,701.0,775.0
769.0,736.0,721.0,786.0
776.0,746.0,746.0,783.0
779.0,753.0,765.0,774.0
723.0,757.0,783.0,738.0
702.0,765.0,782.0,705.0
724.0,770.0,754.0,703.0
742.0,769.0,741.0,711.0
739.0,765.0,742.0,721.0
747.0,758.0,727.0,725.0
777.0,749.0,695.0,732.0
790.0,747.0,688.0,751.0
781.0,744.0,699.0,767.0
751.0,737.0,713.0,758.0
748.0,735.0,765.0,760.0
748.0,741.0,799.0,745.0
772.0,743.0,803.0,699.0
770.0,747.0,795.0,662.0
750.0,754.0,788.0,662.0
727.0,751.0,767.0,683.0
715.0,744.0,746.0,735.0
716.0,738.0,736.0,765.0
728.0,732.0,738.0,748.0
738.0,735.0,753.0,712.0
735.0,738.0,769.0,691.0
739.0,744.0,763.0,708.0
752.0,749.0,752.0,740.0
763.0,757.0,751.0,751.0
762.0,757.0,750.0,777.0
734.0,753.0,747.0,807.0
740.0,749.0,742.0,803.0
737.0,744.0,749.0,761.0
737.0,741.0,754.0,739.0
737.0,741.0,755.0,734.0
738.0,740.0,741.0,726.0
739.0,739.0,728.0,721.0
740.0,740.0,733.0,722.0
741.0,741.0,745.0,702.0
743.0,742.0,754.0,686.0
743.0,744.0,757.0,696.0
748.0,747.0,755.0,713.0
749.0,749.0,751.0,733.0
750.0,749.0,750.0,756.0
749.0,748.0,746.0,760.0
750.0,748.0,750.0,754.0
750.0,745.0,763.0,722.0
749.0,745.0,759.0,707.0
749.0,745.0,756.0,698.0
751.0,745.0,753.0,703.0
751.0,746.0,738.0,718.0
750.0,745.0,703.0,751.0
750.0,745.0,684.0,767.0
750.0,745.0,685.0,763.0
748.0,743.0,703.0,740.0
744.0,742.0,721.0,732.0
743.0,743.0,746.0,752.0
743.0,743.0,775.0,752.0
744.0,745.0,780.0,735.0
750.0,748.0,788.0,714.0
751.0,749.0,783.0,684.0
752.0,751.0,778.0,671.0
754.0,750.0,777.0,668.0
755.0,751.0,757.0,719.0
751.0,747.0,728.0,778.0
749.0,741.0,735.0,807.0
745.0,744.0,749.0,800.0
744.0,743.0,757.0,773.0
742.0,742.0,756.0,735.0
739.0,741.0,765.0,726.0
741.0,739.0,762.0,715.0
742.0,738.0,754.0,704.0
745.0,739.0,749.0,707.0
745.0,740.0,744.0,715.0
747.0,742.0,746.0,705.0
750.0,746.0,748.0,689.0
763.0,751.0,754.0,672.0
769.0,755.0,755.0,666.0
779.0,758.0,748.0,698.0
792.0,752.0,736.0,750.0
787.0,740.0,728.0,788.0
774.0,732.0,730.0,763.0
796.0,724.0,743.0,740.0
757.0,715.0,755.0,745.0
707.0,721.0,755.0,738.0
702.0,736.0,744.0,727.0
713.0,744.0,739.0,735.0
718.0,748.0,745.0,749.0
729.0,752.0,751.0,745.0
733.0,757.0,756.0,736.0
736.0,756.0,756.0,733.0
742.0,756.0,757.0,734.0
749.0,755.0,754.0,736.0
750.0,754.0,753.0,739.0
751.0,754.0,752.0,738.0
752.0,750.0,753.0,736.0
751.0,747.0,754.0,732.0
754.0,747.0,754.0,731.0
763.0,747.0,754.0,731.0
746.0,743.0,754.0,732.0
743.0,742.0,752.0,730.0
737.0,744.0,751.0,724.0
734.0,747.0,751.0,719.0
739.0,746.0,751.0,710.0
749.0,746.0,744.0,706.0
756.0,749.0,726.0,706.0
773.0,751.0,723.0,705.0
785.0,748.0,732.0,734.0
771.0,746.0,739.0,756.0
742.0,744.0,751.0,752.0
715.0,746.0,763.0,744.0
730.0,749.0,765.0,738.0
740.0,747.0,758.0,735.0
745.0,747.0,752.0,735.0
746.0,745.0,749.0,729.0
749.0,745.0,748.0,725.0
745.0,745.0,744.0,722.0
744.0,744.0,744.0,720.0
745.0,743.0,738.0,727.0
746.0,744.0,732.0,726.0
747.0,743.0,738.0,716.0
748.0,744.0,744.0,700.0
750.0,745.0,744.0,695.0
750.0,747.0,743.0,706.0
749.0,746.0,747.0,728.0
751.0,748.0,745.0,739.0
750.0,749.0,749.0,745.0
747.0,749.0,757.0,736.0
749.0,749.0,765.0,728.0
750.0,748.0,769.0,725.0
750.0,745.0,764.0,721.0
749.0,745.0,758.0,712.0
748.0,742.0,765.0,696.0
746.0,742.0,767.0,685.0
745.0,740.0,770.0,696.0
743.0,740.0,768.0,743.0
742.0,739.0,756.0,766.0
742.0,740.0,752.0,747.0
744.0,742.0,753.0,729.0
747.0,744.0,753.0,731.0
748.0,744.0,755.0,734.0
748.0,747.0,748.0,732.0
749.0,746.0,746.0,738.0
750.0,748.0,747.0,743.0
750.0,748.0,752.0,745.0
751.0,747.0,753.0,744.0
751.0,748.0,754.0,740.0
750.0,747.0,757.0,735.0
749.0,746.0,758.0,737.0
747.0,744.0,746.0,740.0
746.0,743.0,734.0,742.0
744.0,743.0,717.0,722.0
743.0,742.0,712.0,715.0
743.0,741.0,721.0,715.0
743.0,741.0,727.0,718.0
745.0,741.0,738.0,716.0
748.0,744.0,747.0,719.0
748.0,745.0,765.0,723.0
750.0,746.0,775.0,728.0
751.0,749.0,772.0,732.0
751.0,751.0,767.0,731.0
752.0,752.0,762.0,732.0
751.0,750.0,757.0,732.0
750.0,750.0,754.0,734.0
750.0,746.0,753.0,730.0
747.0,745.0,753.0,728.0
746.0,744.0,748.0,728.0
742.0,744.0,741.0,727.0
741.0,743.0,735.0,724.0
743.0,742.0,732.0,721.0
740.0,742.0,729.0,718.0
752.0,742.0,730.0,720.0
749.0,744.0,734.0,723.0
748.0,745.0,738.0,725.0
749.0,746.0,742.0,724.0
749.0,748.0,745.0,727.0
753.0,750.0,749.0,731.0
752.0,750.0,750.0,733.0
752.0,750.0,750.0,735.0
749.0,749.0,749.0,732.0
749.0,748.0,745.0,730.0
747.0,746.0,741.0,728.0
750.0,744.0,740.0,725.0
757.0,743.0,738.0,723.0
755.0,743.0,737.0,720.0
752.0,742.0,737.0,719.0
752.0,741.0,736.0,717.0
753.0,742.0,737.0,718.0
740.0,742.0,737.0,719.0
731.0,743.0,739.0,722.0
743.0,745.0,741.0,722.0
750.0,748.0,743.0,727.0
749.0,751.0,745.0,729.0
755.0,753.0,749.0,730.0
760.0,752.0,754.0,730.0
759.0,750.0,756.0,730.0
760.0,748.0,755.0,730.0
759.0,745.0,753.0,730.0
744.0,743.0,749.0,728.0
736.0,743.0,746.0,725.0
737.0,742.0,745.0,720.0
739.0,741.0,742.0,717.0
750.0,741.0,741.0,717.0
754.0,741.0,738.0,717.0
758.0,741.0,737.0,723.0
762.0,744.0,739.0,728.0
764.0,745.0,742.0,727.0
750.0,746.0,743.0,725.0
735.0,746.0,748.0,724.0
743.0,749.0,752.0,729.0
742.0,749.0,753.0,732.0
742.0,750.0,753.0,733.0
749.0,749.0,752.0,732.0
749.0,747.0,750.0,732.0
748.0,745.0,748.0,728.0
747.0,744.0,746.0,727.0
745.0,743.0,744.0,724.0
745.0,742.0,742.0,721.0
745.0,742.0,740.0,717.0
743.0,741.0,738.0,713.0
745.0,741.0,738.0,710.0
744.0,742.0,740.0,708.0
747.0,743.0,744.0,707.0
749.0,746.0,746.0,708.0
750.0,747.0,749.0,717.0
751.0,748.0,748.0,721.0
753.0,749.0,745.0,730.0
753.0,749.0,740.0,736.0
753.0,749.0,743.0,746.0
751.0,748.0,744.0,745.0
750.0,746.0,748.0,741.0
749.0,745.0,752.0,730.0
748.0,744.0,755.0,726.0
747.0,743.0,755.0,728.0
745.0,741.0,760.0,728.0
744.0,740.0,762.0,726.0
744.0,739.0,758.0,722.0
743.0,739.0,753.0,717.0
745.0,742.0,750.0,717.0
747.0,744.0,752.0,720.0
747.0,744.0,746.0,722.0
750.0,747.0,745.0,724.0
753.0,748.0,753.0,725.0
754.0,749.0,764.0,726.0
755.0,749.0,774.0,728.0
752.0,747.0,780.0,729.0
751.0,746.0,777.0,730.0
749.0,746.0,760.0,728.0
750.0,745.0,740.0,727.0
748.0,745.0,729.0,724.0
748.0,746.0,727.0,723.0
746.0,742.0,727.0,721.0
746.0,742.0,729.0,720.0
745.0,741.0,730.0,718.0
746.0,742.0,724.0,718.0
748.0,743.0,726.0,723.0
749.0,745.0,730.0,726.0
750.0,746.0,733.0,726.0
753.0,748.0,740.0,730.0
754.0,751.0,751.0,733.0
754.0,751.0,757.0,734.0
753.0,750.0,761.0,734.0
752.0,747.0,761.0,732.0
751.0,746.0,763.0,731.0
751.0,746.0,759.0,728.0
749.0,745.0,752.0,727.0
749.0,744.0,741.0,726.0
747.0,743.0,733.0,722.0
747.0,742.0,729.0,719.0
746.0,741.0,727.0,718.0
746.0,741.0,729.0,717.0
746.0,742.0,732.0,717.0
748.0,744.0,736.0,720.0
750.0,749.0,739.0,724.0
752.0,749.0,742.0,726.0
753.0,748.0,745.0,728.0
755.0,751.0,746.0,731.0
754.0,750.0,746.0,732.0
754.0,750.0,748.0,732.0
753.0,749.0,747.0,731.0
752.0,746.0,745.0,729.0
750.0,742.0,743.0,727.0
749.0,739.0,741.0,725.0
749.0,738.0,739.0,722.0
748.0,738.0,737.0,721.0
746.0,738.0,736.0,719.0
745.0,738.0,734.0,717.0
746.0,739.0,734.0,717.0
747.0,740.0,736.0,720.0
750.0,746.0,740.0,723.0
748.0,750.0,742.0,724.0
752.0,750.0,745.0,727.0
753.0,751.0,747.0,730.0
754.0,752.0,749.0,732.0
755.0,752.0,751.0,732.0
754.0,750.0,749.0,733.0
752.0,749.0,748.0,730.0
751.0,747.0,747.0,730.0
748.0,745.0,745.0,727.0
750.0,742.0,743.0,725.0
748.0,739.0,740.0,722.0
749.0,735.0,737.0,719.0
747.0,734.0,738.0,719.0
746.0,735.0,735.0,718.0
747.0,737.0,735.0,718.0
749.0,741.0,737.0,722.0
748.0,745.0,741.0,724.0
751.0,748.0,743.0,727.0
752.0,752.0,745.0,729.0
754.0,754.0,748.0,732.0
755.0,755.0,750.0,733.0
755.0,755.0,750.0,734.0
753.0,751.0,748.0,733.0
752.0,749.0,747.0,731.0
751.0,746.0,746.0,730.0
750.0,745.0,745.0,729.0
749.0,744.0,743.0,726.0
748.0,743.0,742.0,725.0
747.0,742.0,740.0,723.0
746.0,741.0,739.0,720.0
747.0,741.0,739.0,720.0
747.0,742.0,740.0,720.0
749.0,742.0,740.0,721.0
749.0,744.0,744.0,722.0
753.0,745.0,746.0,723.0
754.0,745.0,745.0,723.0
755.0,745.0,749.0,723.0
755.0,744.0,751.0,722.0
756.0,745.0,748.0,724.0
754.0,748.0,746.0,725.0
753.0,748.0,744.0,724.0
750.0,747.0,742.0,722.0
750.0,747.0,741.0,725.0
750.0,747.0,738.0,731.0
748.0,745.0,736.0,734.0
747.0,743.0,737.0,732.0
748.0,741.0,736.0,728.0
747.0,741.0,736.0,721.0
748.0,742.0,734.0,722.0
749.0,745.0,735.0,722.0
751.0,746.0,737.0,721.0
754.0,749.0,741.0,722.0
755.0,751.0,745.0,728.0
756.0,752.0,745.0,736.0
756.0,753.0,746.0,743.0
756.0,751.0,746.0,746.0
753.0,749.0,747.0,750.0
750.0,747.0,747.0,744.0
750.0,745.0,744.0,737.0
748.0,745.0,743.0,731.0
748.0,743.0,742.0,726.0
746.0,743.0,741.0,720.0
746.0,742.0,740.0,719.0
745.0,741.0,738.0,719.0
747.0,742.0,736.0,719.0
747.0,744.0,738.0,723.0
750.0,743.0,741.0,728.0
753.0,742.0,744.0,730.0
756.0,741.0,746.0,737.0
756.0,741.0,749.0,739.0
756.0,740.0,752.0,738.0
757.0,740.0,752.0,738.0
755.0,739.0,750.0,735.0
755.0,738.0,747.0,734.0
752.0,739.0,743.0,732.0
750.0,742.0,739.0,726.0
749.0,746.0,738.0,722.0
748.0,746.0,739.0,719.0
747.0,747.0,741.0,717.0
746.0,748.0,740.0,720.0
746.0,750.0,739.0,720.0
747.0,750.0,740.0,722.0
749.0,747.0,742.0,727.0
750.0,746.0,743.0,730.0
751.0,748.0,743.0,731.0
754.0,747.0,745.0,733.0
757.0,749.0,747.0,734.0
758.0,749.0,749.0,734.0
758.0,749.0,749.0,732.0
756.0,750.0,748.0,732.0
751.0,751.0,747.0,732.0
750.0,750.0,745.0,730.0
749.0,748.0,740.0,728.0
750.0,746.0,737.0,726.0
748.0,743.0,735.0,724.0
748.0,744.0,734.0,722.0
748.0,742.0,734.0,722.0
747.0,743.0,736.0,723.0
749.0,744.0,741.0,726.0
751.0,746.0,743.0,730.0
751.0,747.0,744.0,730.0
754.0,749.0,753.0,732.0
755.0,751.0,760.0,734.0
755.0,750.0,763.0,735.0
756.0,751.0,763.0,735.0
754.0,750.0,756.0,733.0
754.0,749.0,750.0,731.0
753.0,747.0,747.0,730.0
750.0,746.0,745.0,728.0
750.0,744.0,741.0,725.0
749.0,743.0,739.0,725.0
747.0,742.0,736.0,725.0
747.0,741.0,736.0,725.0
748.0,742.0,734.0,721.0
749.0,742.0,731.0,724.0
750.0,745.0,734.0,727.0
751.0,746.0,737.0,729.0
753.0,748.0,740.0,733.0
754.0,749.0,743.0,735.0
756.0,752.0,746.0,737.0
757.0,751.0,748.0,735.0
756.0,751.0,750.0,732.0
755.0,750.0,750.0,727.0
753.0,749.0,750.0,720.0
753.0,746.0,746.0,716.0
752.0,745.0,743.0,712.0
751.0,742.0,738.0,710.0
750.0,741.0,734.0,711.0
749.0,743.0,732.0,722.0
749.0,743.0,731.0,738.0
747.0,743.0,729.0,747.0
748.0,742.0,733.0,741.0
750.0,743.0,737.0,740.0
751.0,745.0,741.0,740.0
753.0,747.0,743.0,743.0
754.0,745.0,744.0,744.0
755.0,743.0,746.0,751.0
756.0,740.0,748.0,752.0
754.0,740.0,747.0,748.0
754.0,741.0,747.0,742.0
752.0,741.0,745.0,737.0
750.0,741.0,745.0,731.0
750.0,740.0,743.0,729.0
750.0,743.0,741.0,731.0
748.0,743.0,739.0,733.0
748.0,743.0,739.0,734.0
747.0,744.0,737.0,733.0
748.0,745.0,737.0,736.0
749.0,745.0,740.0,731.0
750.0,748.0,742.0,729.0
752.0,749.0,741.0,730.0
753.0,751.0,747.0,733.0
754.0,754.0,750.0,736.0
755.0,753.0,752.0,737.0
756.0,754.0,751.0,738.0
754.0,751.0,750.0,739.0
753.0,750.0,749.0,738.0
752.0,749.0,747.0,734.0
750.0,746.0,745.0,732.0
749.0,746.0,742.0,728.0
749.0,744.0,740.0,728.0
748.0,744.0,738.0,725.0
748.0,743.0,736.0,725.0
748.0,744.0,735.0,726.0
748.0,743.0,734.0,728.0
750.0,744.0,735.0,731.0
754.0,745.0,737.0,733.0
757.0,746.0,741.0,729.0
760.0,745.0,746.0,723.0
761.0,748.0,751.0,720.0
761.0,748.0,752.0,720.0
760.0,748.0,755.0,721.0
753.0,747.0,752.0,723.0
749.0,749.0,749.0,725.0
749.0,749.0,746.0,737.0
748.0,749.0,744.0,750.0
748.0,746.0,741.0,754.0
746.0,745.0,737.0,750.0
746.0,744.0,735.0,748.0
745.0,742.0,734.0,742.0
745.0,742.0,734.0,737.0
748.0,744.0,736.0,736.0
749.0,746.0,740.0,737.0
752.0,747.0,743.0,737.0
756.0,749.0,745.0,740.0
756.0,750.0,749.0,742.0
755.0,750.0,752.0,744.0
755.0,749.0,752.0,745.0
754.0,748.0,750.0,744.0
754.0,748.0,749.0,742.0
751.0,747.0,748.0,739.0
749.0,745.0,746.0,737.0
751.0,744.0,743.0,733.0
749.0,745.0,742.0,731.0
748.0,743.0,738.0,728.0
749.0,741.0,739.0,729.0
748.0,740.0,738.0,727.0
749.0,740.0,739.0,726.0
749.0,742.0,741.0,730.0
752.0,744.0,742.0,734.0
755.0,745.0,742.0,737.0
757.0,747.0,745.0,740.0
761.0,749.0,748.0,743.0
761.0,749.0,749.0,744.0
760.0,750.0,749.0,744.0
753.0,748.0,747.0,744.0
747.0,748.0,747.0,743.0
747.0,746.0,746.0,740.0
749.0,746.0,744.0,739.0
747.0,744.0,743.0,734.0
747.0,743.0,740.0,732.0
749.0,743.0,738.0,729.0
748.0,742.0,737.0,727.0
747.0,741.0,737.0,727.0
746.0,742.0,737.0,728.0
749.0,744.0,739.0,732.0
750.0,746.0,742.0,734.0
752.0,748.0,745.0,737.0
754.0,749.0,746.0,739.0
756.0,751.0,749.0,742.0
755.0,751.0,751.0,742.0
755.0,750.0,751.0,743.0
754.0,748.0,750.0,743.0
752.0,747.0,748.0,741.0
749.0,745.0,746.0,738.0
750.0,744.0,744.0,736.0
748.0,744.0,741.0,733.0
747.0,742.0,737.0,728.0
747.0,743.0,735.0,724.0
750.0,742.0,732.0,722.0
752.0,743.0,735.0,722.0
757.0,744.0,738.0,721.0
761.0,744.0,742.0,725.0
764.0,745.0,744.0,734.0
765.0,750.0,746.0,746.0
760.0,749.0,748.0,753.0
757.0,751.0,751.0,755.0
750.0,751.0,753.0,753.0
746.0,749.0,751.0,752.0
748.0,748.0,747.0,751.0
750.0,746.0,744.0,746.0
750.0,744.0,743.0,741.0
748.0,742.0,742.0,735.0
748.0,743.0,741.0,732.0
747.0,742.0,739.0,729.0
746.0,742.0,738.0,728.0
747.0,741.0,735.0,728.0
747.0,741.0,736.0,728.0
748.0,743.0,738.0,730.0
750.0,743.0,740.0,734.0
751.0,737.0,743.0,737.0
754.0,735.0,745.0,742.0
756.0,737.0,750.0,744.0
756.0,739.0,753.0,739.0
757.0,742.0,756.0,736.0
755.0,744.0,755.0,732.0
754.0,746.0,755.0,730.0
753.0,747.0,751.0,729.0
751.0,750.0,749.0,731.0
749.0,752.0,745.0,732.0
749.0,749.0,741.0,739.0
748.0,748.0,738.0,742.0
748.0,745.0,737.0,739.0
747.0,744.0,738.0,738.0
748.0,744.0,739.0,736.0
750.0,746.0,740.0,742.0
751.0,746.0,740.0,746.0
753.0,749.0,742.0,749.0
755.0,750.0,743.0,750.0
756.0,752.0,745.0,752.0
756.0,752.0,745.0,752.0
755.0,753.0,749.0,751.0
754.0,752.0,749.0,747.0
753.0,750.0,747.0,743.0
752.0,747.0,747.0,741.0
750.0,745.0,744.0,740.0
749.0,743.0,742.0,737.0
748.0,743.0,738.0,737.0
749.0,743.0,738.0,733.0
748.0,742.0,737.0,733.0
747.0,742.0,736.0,731.0
748.0,744.0,737.0,731.0
750.0,746.0,738.0,736.0
750.0,747.0,744.0,738.0
753.0,749.0,746.0,742.0
755.0,750.0,749.0,743.0
758.0,750.0,750.0,746.0
759.0,750.0,752.0,747.0
757.0,750.0,748.0,745.0
753.0,749.0,748.0,742.0
752.0,747.0,745.0,740.0
750.0,746.0,748.0,737.0
750.0,744.0,742.0,736.0
750.0,744.0,742.0,735.0
749.0,742.0,741.0,733.0
748.0,740.0,743.0,734.0
748.0,741.0,740.0,736.0
749.0,740.0,738.0,736.0
750.0,742.0,739.0,740.0
750.0,744.0,741.0,744.0
753.0,745.0,745.0,747.0
754.0,747.0,749.0,747.0
756.0,749.0,753.0,747.0
756.0,749.0,754.0,745.0
756.0,750.0,753.0,745.0
756.0,748.0,752.0,745.0
754.0,748.0,748.0,743.0
751.0,747.0,747.0,742.0
751.0,743.0,745.0,740.0
749.0,743.0,744.0,737.0
750.0,744.0,741.0,737.0
749.0,743.0,738.0,737.0
748.0,743.0,736.0,733.0
750.0,742.0,735.0,732.0
750.0,743.0,735.0,733.0
750.0,745.0,742.0,736.0
752.0,745.0,747.0,739.0
753.0,747.0,753.0,741.0
755.0,748.0,752.0,741.0
757.0,749.0,754.0,743.0
756.0,749.0,754.0,744.0
756.0,748.0,752.0,746.0
755.0,747.0,748.0,746.0
753.0,747.0,745.0,745.0
753.0,747.0,742.0,744.0
751.0,744.0,740.0,743.0
750.0,738.0,738.0,744.0
749.0,736.0,738.0,739.0
747.0,738.0,739.0,736.0
748.0,739.0,738.0,732.0
747.0,740.0,737.0,729.0
749.0,742.0,739.0,731.0
750.0,745.0,742.0,735.0
752.0,747.0,744.0,740.0
754.0,753.0,745.0,747.0
756.0,755.0,747.0,752.0
756.0,754.0,749.0,754.0
757.0,752.0,751.0,753.0
755.0,752.0,750.0,749.0
754.0,749.0,749.0,747.0
752.0,748.0,746.0,743.0
750.0,746.0,745.0,741.0
749.0,745.0,742.0,739.0
749.0,742.0,741.0,737.0
749.0,742.0,738.0,735.0
749.0,742.0,737.0,734.0
748.0,742.0,737.0,728.0
749.0,743.0,737.0,724.0
750.0,742.0,740.0,724.0
753.0,739.0,744.0,725.0
757.0,741.0,747.0,724.0
760.0,743.0,749.0,726.0
762.0,747.0,749.0,735.0
761.0,746.0,748.0,742.0
759.0,746.0,748.0,749.0
757.0,746.0,747.0,755.0
751.0,747.0,747.0,757.0
747.0,747.0,745.0,762.0
747.0,750.0,745.0,761.0
749.0,748.0,739.0,754.0
748.0,747.0,738.0,747.0
748.0,747.0,738.0,745.0
747.0,745.0,738.0,740.0
747.0,745.0,737.0,738.0
748.0,745.0,738.0,737.0
751.0,747.0,741.0,741.0
751.0,748.0,746.0,743.0
753.0,750.0,747.0,749.0
754.0,751.0,749.0,750.0
756.0,752.0,752.0,751.0
756.0,752.0,753.0,752.0
754.0,751.0,752.0,749.0
754.0,748.0,751.0,747.0
752.0,746.0,748.0,744.0
751.0,743.0,746.0,743.0
751.0,742.0,743.0,743.0
750.0,741.0,743.0,740.0
749.0,741.0,739.0,737.0
750.0,742.0,740.0,736.0
749.0,743.0,739.0,736.0
749.0,744.0,738.0,738.0
749.0,745.0,741.0,741.0
751.0,747.0,744.0,740.0
753.0,748.0,749.0,738.0
755.0,750.0,752.0,738.0
756.0,751.0,753.0,738.0
755.0,750.0,753.0,742.0
757.0,752.0,753.0,746.0
755.0,751.0,751.0,750.0
754.0,748.0,750.0,757.0
752.0,746.0,745.0,759.0
751.0,743.0,743.0,755.0
751.0,741.0,742.0,749.0
749.0,742.0,740.0,744.0
746.0,741.0,737.0,740.0
745.0,741.0,737.0,737.0
743.0,742.0,735.0,735.0
745.0,744.0,736.0,735.0
749.0,746.0,737.0,737.0
753.0,748.0,740.0,740.0
758.0,748.0,744.0,743.0
761.0,749.0,748.0,744.0
766.0,750.0,752.0,748.0
766.0,750.0,751.0,748.0
764.0,751.0,751.0,751.0
762.0,750.0,750.0,751.0
762.0,749.0,747.0,751.0
759.0,747.0,744.0,746.0
747.0,745.0,743.0,740.0
740.0,744.0,741.0,733.0
743.0,742.0,738.0,730.0
747.0,742.0,737.0,729.0
745.0,741.0,735.0,727.0
743.0,740.0,734.0,728.0
748.0,739.0,734.0,738.0
751.0,741.0,740.0,746.0
751.0,742.0,743.0,744.0
754.0,744.0,747.0,739.0
757.0,747.0,748.0,731.0
759.0,750.0,750.0,730.0
754.0,751.0,750.0,736.0
751.0,750.0,749.0,742.0
751.0,750.0,746.0,751.0
750.0,750.0,741.0,763.0
750.0,748.0,737.0,762.0
748.0,746.0,735.0,753.0
747.0,747.0,735.0,749.0
744.0,745.0,737.0,748.0
743.0,745.0,739.0,746.0
744.0,742.0,740.0,742.0
747.0,737.0,743.0,741.0
750.0,732.0,747.0,744.0
757.0,730.0,751.0,749.0
761.0,731.0,753.0,753.0
759.0,737.0,755.0,755.0
760.0,740.0,753.0,752.0
759.0,744.0,752.0,749.0
765.0,749.0,750.0,751.0
761.0,751.0,749.0,754.0
755.0,756.0,747.0,755.0
752.0,759.0,744.0,749.0
753.0,756.0,738.0,746.0
750.0,754.0,736.0,743.0
746.0,750.0,736.0,741.0
746.0,746.0,740.0,737.0
743.0,743.0,744.0,741.0
743.0,741.0,746.0,741.0
745.0,741.0,745.0,738.0
748.0,743.0,743.0,738.0
751.0,745.0,743.0,740.0
750.0,748.0,742.0,747.0
752.0,750.0,738.0,751.0
755.0,752.0,737.0,752.0
753.0,753.0,737.0,750.0
757.0,753.0,743.0,750.0
763.0,754.0,746.0,746.0
765.0,755.0,752.0,742.0
766.0,756.0,756.0,741.0
765.0,756.0,759.0,741.0
761.0,752.0,761.0,742.0
748.0,746.0,753.0,743.0
733.0,742.0,745.0,747.0
730.0,739.0,738.0,743.0
739.0,738.0,729.0,739.0
744.0,739.0,726.0,736.0
746.0,743.0,724.0,740.0
746.0,745.0,725.0,741.0
746.0,747.0,735.0,748.0
748.0,749.0,751.0,755.0
750.0,749.0,764.0,756.0
753.0,750.0,764.0,753.0
757.0,750.0,757.0,756.0
758.0,748.0,752.0,761.0
763.0,747.0,749.0,754.0
763.0,747.0,746.0,744.0
765.0,744.0,743.0,742.0
770.0,744.0,741.0,742.0
767.0,742.0,740.0,735.0
757.0,743.0,738.0,721.0
751.0,743.0,735.0,711.0
750.0,744.0,735.0,715.0
745.0,749.0,737.0,728.0
740.0,756.0,734.0,735.0
742.0,758.0,735.0,738.0
746.0,758.0,741.0,748.0
749.0,758.0,737.0,750.0
750.0,754.0,736.0,745.0
760.0,748.0,738.0,737.0
762.0,744.0,737.0,734.0
760.0,742.0,734.0,751.0
758.0,742.0,733.0,762.0
763.0,740.0,743.0,775.0
763.0,738.0,761.0,785.0
737.0,738.0,773.0,775.0
732.0,738.0,772.0,766.0
734.0,738.0,764.0,753.0
746.0,741.0,754.0,745.0
752.0,743.0,748.0,742.0
757.0,745.0,750.0,742.0
761.0,746.0,758.0,738.0
763.0,747.0,762.0,742.0
750.0,748.0,759.0,749.0
756.0,748.0,760.0,756.0
758.0,749.0,756.0,756.0
757.0,750.0,748.0,760.0
752.0,749.0,745.0,762.0
746.0,745.0,744.0,762.0
744.0,741.0,739.0,747.0
741.0,738.0,736.0,738.0
744.0,739.0,732.0,730.0
747.0,740.0,730.0,736.0
749.0,741.0,726.0,740.0
749.0,743.0,730.0,733.0
750.0,744.0,731.0,737.0
750.0,746.0,737.0,756.0
746.0,748.0,743.0,762.0
746.0,746.0,747.0,753.0
756.0,749.0,758.0,742.0
771.0,751.0,764.0,737.0
769.0,751.0,762.0,731.0
767.0,750.0,759.0,733.0
758.0,746.0,764.0,743.0
754.0,744.0,766.0,754.0
759.0,741.0,763.0,763.0
754.0,738.0,754.0,770.0
730.0,736.0,752.0,777.0
736.0,739.0,750.0,771.0
741.0,742.0,746.0,756.0
743.0,745.0,735.0,747.0
744.0,746.0,727.0,744.0
744.0,745.0,721.0,745.0
749.0,743.0,718.0,745.0
753.0,743.0,725.0,744.0
754.0,743.0,739.0,744.0
755.0,747.0,747.0,748.0
754.0,749.0,758.0,752.0
753.0,749.0,759.0,753.0
754.0,751.0,751.0,754.0
755.0,751.0,745.0,746.0
755.0,749.0,747.0,739.0
753.0,747.0,746.0,735.0
753.0,745.0,756.0,740.0
750.0,744.0,770.0,740.0
751.0,745.0,763.0,734.0
752.0,745.0,755.0,747.0
752.0,743.0,743.0,761.0
754.0,743.0,729.0,761.0
752.0,743.0,726.0,760.0
754.0,746.0,732.0,755.0
759.0,748.0,743.0,742.0
761.0,754.0,741.0,740.0
762.0,756.0,735.0,741.0
759.0,757.0,742.0,747.0
760.0,756.0,749.0,744.0
749.0,752.0,749.0,748.0
751.0,746.0,739.0,764.0
749.0,746.0,731.0,766.0
747.0,746.0,728.0,764.0
749.0,750.0,732.0,753.0
747.0,747.0,741.0,753.0
744.0,744.0,749.0,743.0
751.0,739.0,764.0,738.0
754.0,735.0,770.0,742.0
757.0,737.0,763.0,737.0
758.0,735.0,750.0,733.0
759.0,740.0,741.0,730.0
744.0,744.0,741.0,732.0
745.0,750.0,752.0,739.0
747.0,754.0,754.0,745.0
759.0,752.0,753.0,758.0
761.0,747.0,753.0,764.0
747.0,744.0,753.0,762.0
747.0,745.0,753.0,757.0
759.0,745.0,747.0,747.0
761.0,745.0,738.0,741.0
761.0,744.0,723.0,750.0
762.0,745.0,713.0,751.0
753.0,744.0,714.0,759.0
747.0,744.0,719.0,765.0
741.0,743.0,729.0,758.0
741.0,744.0,747.0,757.0
747.0,745.0,766.0,766.0
746.0,746.0,771.0,758.0
745.0,747.0,759.0,754.0
749.0,750.0,732.0,742.0
753.0,752.0,714.0,733.0
756.0,753.0,704.0,726.0
760.0,754.0,711.0,729.0
748.0,751.0,732.0,739.0
744.0,749.0,766.0,752.0
759.0,746.0,798.0,771.0
759.0,745.0,794.0,783.0
750.0,741.0,769.0,782.0
746.0,740.0,755.0,766.0
743.0,739.0,756.0,753.0
745.0,739.0,747.0,749.0
746.0,742.0,735.0,747.0
748.0,743.0,731.0,744.0
747.0,745.0,732.0,744.0
745.0,746.0,721.0,744.0
754.0,748.0,712.0,741.0
762.0,750.0,713.0,731.0
769.0,752.0,727.0,735.0
768.0,755.0,737.0,735.0
768.0,755.0,750.0,740.0
764.0,755.0,765.0,747.0
754.0,755.0,784.0,759.0
758.0,754.0,791.0,756.0
752.0,749.0,781.0,761.0
759.0,744.0,758.0,769.0
749.0,739.0,737.0,756.0
732.0,737.0,708.0,741.0
740.0,738.0,678.0,744.0
748.0,738.0,674.0,764.0
751.0,741.0,689.0,757.0
747.0,744.0,729.0,743.0
750.0,745.0,750.0,750.0
761.0,749.0,750.0,773.0
768.0,750.0,752.0,779.0
762.0,750.0,752.0,770.0
761.0,748.0,755.0,755.0
763.0,747.0,763.0,734.0
750.0,745.0,778.0,736.0
750.0,745.0,779.0,744.0
742.0,741.0,775.0,754.0
743.0,743.0,768.0,772.0
751.0,742.0,763.0,785.0
750.0,738.0,756.0,776.0
756.0,735.0,742.0,752.0
756.0,733.0,717.0,734.0
746.0,734.0,709.0,738.0
733.0,740.0,705.0,748.0
735.0,747.0,709.0,757.0
746.0,750.0,715.0,745.0
746.0,753.0,729.0,731.0
752.0,755.0,742.0,709.0
757.0,755.0,749.0,695.0
772.0,758.0,752.0,704.0
777.0,761.0,754.0,732.0
774.0,755.0,757.0,768.0
772.0,748.0,772.0,800.0
780.0,744.0,758.0,812.0
771.0,740.0,746.0,792.0
741.0,734.0,745.0,752.0
727.0,727.0,752.0,738.0
719.0,725.0,751.0,741.0
726.0,729.0,740.0,732.0
739.0,741.0,716.0,723.0
757.0,749.0,693.0,723.0
771.0,755.0,669.0,734.0
786.0,759.0,667.0,754.0
782.0,755.0,706.0,776.0
774.0,754.0,769.0,783.0
753.0,753.0,817.0,767.0
741.0,752.0,812.0,732.0
740.0,751.0,780.0,727.0
745.0,752.0,745.0,746.0
744.0,751.0,728.0,753.0
746.0,756.0,718.0,765.0
754.0,756.0,724.0,790.0
751.0,752.0,754.0,813.0
748.0,744.0,769.0,793.0
754.0,739.0,735.0,745.0
746.0,736.0,703.0,729.0
737.0,737.0,703.0,746.0
740.0,743.0,715.0,763.0
750.0,745.0,729.0,755.0
750.0,746.0,773.0,735.0
746.0,745.0,791.0,712.0
759.0,744.0,792.0,702.0
775.0,747.0,801.0,717.0
789.0,748.0,779.0,742.0
783.0,746.0,754.0,791.0
757.0,743.0,729.0,799.0
728.0,741.0,719.0,787.0
724.0,743.0,702.0,771.0
736.0,745.0,694.0,758.0
739.0,747.0,713.0,751.0
743.0,744.0,757.0,770.0
743.0,740.0,783.0,793.0
740.0,738.0,794.0,798.0
750.0,741.0,802.0,785.0
754.0,749.0,785.0,771.0
752.0,753.0,766.0,769.0
754.0,755.0,750.0,764.0
747.0,757.0,745.0,759.0
740.0,755.0,746.0,761.0
748.0,753.0,746.0,752.0
763.0,753.0,757.0,727.0
780.0,749.0,751.0,709.0
790.0,749.0,741.0,726.0
795.0,753.0,728.0,751.0
772.0,752.0,720.0,774.0
741.0,746.0,734.0,785.0
731.0,745.0,737.0,768.0
740.0,744.0,739.0,735.0
744.0,742.0,737.0,730.0
749.0,743.0,736.0,763.0
750.0,745.0,746.0,769.0
763.0,745.0,745.0,751.0
768.0,743.0,739.0,746.0
747.0,742.0,748.0,747.0
743.0,747.0,753.0,767.0
756.0,755.0,767.0,776.0
758.0,755.0,781.0,779.0
744.0,749.0,791.0,770.0
726.0,741.0,790.0,755.0
730.0,733.0,782.0,747.0
736.0,730.0,766.0,740.0
740.0,730.0,732.0,729.0
756.0,728.0,700.0,742.0
756.0,733.0,700.0,735.0
758.0,737.0,708.0,735.0
767.0,742.0,705.0,740.0
772.0,743.0,737.0,749.0
755.0,736.0,775.0,754.0
747.0,728.0,770.0,778.0
748.0,733.0,745.0,791.0
741.0,741.0,718.0,800.0
739.0,748.0,737.0,765.0
747.0,756.0,757.0,726.0
758.0,762.0,765.0,718.0
770.0,768.0,778.0,700.0
767.0,769.0,790.0,683.0
753.0,769.0,766.0,679.0
728.0,764.0,743.0,721.0
754.0,756.0,733.0,790.0
761.0,748.0,723.0,846.0
764.0,742.0,713.0,872.0
774.0,734.0,722.0,841.0
764.0,732.0,729.0,799.0
725.0,734.0,744.0,762.0
716.0,736.0,767.0,742.0
736.0,748.0,796.0,746.0
751.0,756.0,799.0,764.0
751.0,758.0,794.0,790.0
746.0,757.0,771.0,804.0
753.0,757.0,749.0,795.0
748.0,758.0,742.0,777.0
758.0,754.0,738.0,747.0
771.0,751.0,745.0,729.0
772.0,748.0,751.0,725.0
791.0,746.0,741.0,701.0
787.0,742.0,709.0,681.0
772.0,737.0,675.0,693.0
750.0,740.0,661.0,717.0
725.0,751.0,685.0,751.0
726.0,757.0,718.0,803.0
724.0,759.0,755.0,833.0
744.0,757.0,790.0,799.0
754.0,761.0,804.0,752.0
746.0,767.0,788.0,744.0
749.0,765.0,756.0,751.0
754.0,761.0,731.0,739.0
756.0,753.0,719.0,753.0
750.0,743.0,734.0,765.0
739.0,738.0,754.0,779.0
745.0,739.0,763.0,764.0
751.0,746.0,737.0,729.0
758.0,743.0,697.0,740.0
752.0,738.0,700.0,759.0
748.0,740.0,731.0,765.0
733.0,736.0,758.0,755.0
729.0,735.0,783.0,786.0
733.0,736.0,810.0,836.0
741.0,736.0,806.0,831.0
749.0,738.0,775.0,776.0
743.0,738.0,759.0,751.0
750.0,749.0,753.0,725.0
765.0,755.0,761.0,723.0
772.0,757.0,775.0,735.0
772.0,753.0,768.0,764.0
782.0,749.0,750.0,773.0
788.0,748.0,737.0,766.0
811.0,753.0,739.0,737.0
815.0,757.0,760.0,708.0
789.0,757.0,749.0,692.0
777.0,757.0,714.0,693.0
767.0,752.0,678.0,702.0
703.0,743.0,645.0,745.0
692.0,735.0,637.0,790.0
713.0,730.0,679.0,817.0
723.0,730.0,734.0,792.0
725.0,732.0,761.0,781.0
735.0,735.0,774.0,796.0
742.0,742.0,792.0,826.0
749.0,746.0,814.0,833.0
765.0,747.0,844.0,795.0
778.0,751.0,845.0,751.0
799.0,750.0,811.0,732.0
801.0,745.0,767.0,733.0
781.0,739.0,715.0,729.0
710.0,733.0,668.0,702.0
703.0,727.0,655.0,666.0
708.0,729.0,685.0,665.0
734.0,738.0,717.0,692.0
764.0,745.0,738.0,779.0
781.0,745.0,752.0,838.0
783.0,729.0,750.0,837.0
769.0,726.0,754.0,822.0
778.0,727.0,769.0,815.0
777.0,730.0,792.0,768.0
756.0,731.0,805.0,745.0
754.0,726.0,804.0,737.0
710.0,728.0,791.0,733.0
713.0,751.0,759.0,732.0
726.0,770.0,722.0,729.0
734.0,774.0,689.0,731.0
736.0,767.0,684.0,767.0
738.0,754.0,710.0,786.0
734.0,750.0,721.0,790.0
729.0,749.0,746.0,769.0
734.0,745.0,760.0,759.0
741.0,740.0,766.0,777.0
755.0,741.0,781.0,760.0
769.0,747.0,790.0,714.0
764.0,762.0,782.0,711.0
761.0,771.0,751.0,757.0
755.0,764.0,733.0,780.0
765.0,757.0,720.0,770.0
771.0,750.0,723.0,756.0
760.0,747.0,736.0,739.0
740.0,747.0,738.0,739.0
725.0,745.0,747.0,753.0
737.0,745.0,755.0,750.0
749.0,746.0,740.0,729.0
756.0,749.0,723.0,737.0
762.0,749.0,723.0,781.0
755.0,747.0,735.0,796.0
743.0,747.0,761.0,787.0
737.0,745.0,769.0,750.0
747.0,747.0,791.0,736.0
748.0,745.0,805.0,752.0
744.0,742.0,787.0,772.0
742.0,743.0,749.0,794.0
746.0,748.0,746.0,800.0
750.0,751.0,750.0,772.0
772.0,753.0,754.0,750.0
806.0,759.0,757.0,745.0
825.0,765.0,768.0,728.0
833.0,779.0,755.0,704.0
819.0,777.0,754.0,730.0
734.0,766.0,736.0,767.0
712.0,751.0,705.0,820.0
732.0,736.0,693.0,828.0
702.0,717.0,714.0,748.0
714.0,712.0,743.0,697.0
698.0,714.0,748.0,726.0
722.0,723.0,745.0,747.0
737.0,739.0,757.0,761.0
751.0,750.0,772.0,786.0
754.0,756.0,774.0,771.0
750.0,756.0,769.0,729.0
762.0,754.0,745.0,702.0
769.0,747.0,734.0,691.0
757.0,744.0,715.0,700.0
741.0,746.0,690.0,729.0
740.0,751.0,691.0,762.0
751.0,751.0,717.0,781.0
751.0,749.0,733.0,828.0
737.0,746.0,761.0,854.0
736.0,744.0,782.0,832.0
732.0,735.0,774.0,820.0
735.0,731.0,790.0,777.0
750.0,740.0,801.0,739.0
770.0,750.0,791.0,739.0
771.0,750.0,787.0,736.0
775.0,747.0,786.0,730.0
781.0,750.0,790.0,741.0
752.0,744.0,769.0,714.0
733.0,742.0,733.0,677.0
742.0,738.0,706.0,674.0
741.0,737.0,679.0,748.0
746.0,738.0,651.0,827.0
745.0,739.0,666.0,850.0
748.0,739.0,723.0,798.0
738.0,730.0,762.0,798.0
741.0,718.0,795.0,765.0
743.0,720.0,779.0,725.0
739.0,726.0,757.0,702.0
758.0,731.0,744.0,720.0
789.0,737.0,736.0,741.0
811.0,719.0,741.0,730.0
818.0,719.0,762.0,720.0
802.0,729.0,764.0,715.0
769.0,742.0,736.0,700.0
747.0,756.0,724.0,729.0
743.0,770.0,737.0,763.0
722.0,769.0,764.0,798.0
711.0,762.0,803.0,803.0
736.0,765.0,811.0,804.0
744.0,761.0,776.0,808.0
740.0,752.0,743.0,781.0
749.0,745.0,717.0,770.0
749.0,740.0,713.0,758.0
749.0,737.0,730.0,746.0
742.0,741.0,748.0,722.0
727.0,746.0,750.0,716.0
733.0,752.0,747.0,740.0
735.0,754.0,768.0,740.0
752.0,755.0,774.0,728.0
759.0,757.0,746.0,738.0
754.0,764.0,738.0,749.0
760.0,774.0,750.0,744.0
755.0,771.0,736.0,793.0
739.0,761.0,706.0,820.0
747.0,752.0,686.0,762.0
752.0,744.0,709.0,713.0
760.0,742.0,733.0,689.0
753.0,740.0,738.0,705.0
748.0,741.0,742.0,747.0
749.0,740.0,765.0,761.0
742.0,744.0,784.0,750.0
739.0,755.0,779.0,771.0
737.0,760.0,773.0,779.0
734.0,759.0,770.0,794.0
737.0,757.0,772.0,786.0
741.0,756.0,759.0,770.0
743.0,751.0,713.0,776.0
758.0,747.0,691.0,771.0
774.0,746.0,704.0,754.0
778.0,758.0,727.0,728.0
782.0,770.0,762.0,727.0
783.0,773.0,769.0,730.0
766.0,767.0,755.0,735.0
767.0,753.0,751.0,735.0
750.0,739.0,761.0,720.0
738.0,734.0,757.0,734.0
741.0,730.0,762.0,750.0
750.0,726.0,756.0,738.0
719.0,727.0,725.0,768.0
716.0,732.0,699.0,814.0
725.0,734.0,723.0,787.0
734.0,735.0,763.0,709.0
750.0,735.0,786.0,670.0
764.0,746.0,790.0,672.0
772.0,753.0,755.0,678.0
784.0,757.0,719.0,721.0
794.0,754.0,666.0,819.0
772.0,748.0,665.0,901.0
774.0,745.0,737.0,893.0
750.0,734.0,806.0,832.0
718.0,724.0,822.0,801.0
711.0,723.0,812.0,766.0
711.0,727.0,788.0,737.0
724.0,732.0,754.0,703.0
730.0,738.0,733.0,672.0
738.0,741.0,714.0,668.0
746.0,743.0,716.0,672.0
757.0,745.0,738.0,677.0
779.0,751.0,738.0,721.0
796.0,759.0,737.0,792.0
791.0,776.0,746.0,807.0
779.0,767.0,757.0,831.0
749.0,726.0,774.0,897.0
761.0,700.0,803.0,896.0
746.0,698.0,778.0,793.0
734.0,691.0,732.0,746.0
717.0,691.0,722.0,723.0
704.0,701.0,736.0,706.0
730.0,726.0,753.0,701.0
740.0,746.0,766.0,700.0
725.0,764.0,756.0,679.0
733.0,772.0,740.0,669.0
750.0,776.0,718.0,673.0
754.0,777.0,695.0,709.0
756.0,774.0,705.0,754.0
756.0,768.0,746.0,798.0
760.0,767.0,790.0,835.0
760.0,762.0,827.0,867.0
760.0,753.0,799.0,833.0
747.0,748.0,775.0,757.0
731.0,741.0,764.0,702.0
738.0,733.0,744.0,670.0
753.0,743.0,714.0,659.0
770.0,753.0,691.0,691.0
779.0,756.0,682.0,721.0
760.0,755.0,676.0,718.0
743.0,752.0,692.0,692.0
765.0,763.0,732.0,692.0
769.0,770.0,757.0,738.0
757.0,765.0,770.0,832.0
734.0,762.0,806.0,853.0
737.0,756.0,831.0,831.0
766.0,750.0,820.0,820.0
790.0,744.0,800.0,800.0
800.0,736.0,790.0,783.0
795.0,731.0,797.0,770.0
756.0,725.0,789.0,783.0
685.0,730.0,737.0,756.0
690.0,737.0,706.0,721.0
702.0,740.0,709.0,699.0
726.0,746.0,712.0,695.0
751.0,748.0,685.0,704.0
767.0,753.0,686.0,685.0
765.0,753.0,702.0,639.0
747.0,747.0,710.0,634.0
750.0,748.0,712.0,669.0
758.0,754.0,727.0,702.0
750.0,754.0,784.0,780.0
749.0,753.0,796.0,912.0
741.0,750.0,778.0,959.0
749.0,748.0,782.0,846.0
750.0,751.0,787.0,750.0
750.0,760.0,794.0,720.0
749.0,759.0,783.0,740.0
747.0,749.0,760.0,746.0
762.0,746.0,736.0,735.0
773.0,742.0,744.0,699.0
755.0,742.0,758.0,690.0
758.0,752.0,733.0,717.0
756.0,759.0,702.0,730.0
730.0,752.0,674.0,741.0
739.0,747.0,660.0,745.0
761.0,740.0,663.0,730.0
756.0,730.0,698.0,737.0
744.0,725.0,758.0,740.0
748.0,730.0,821.0,729.0
747.0,745.0,844.0,734.0
741.0,757.0,817.0,731.0
748.0,758.0,758.0,737.0
736.0,754.0,720.0,740.0
743.0,746.0,669.0,744.0
745.0,734.0,622.0,764.0
744.0,725.0,648.0,792.0
751.0,723.0,721.0,785.0
760.0,727.0,788.0,787.0
778.0,725.0,838.0,804.0
786.0,718.0,859.0,775.0
790.0,725.0,845.0,737.0
782.0,746.0,815.0,741.0
727.0,760.0,784.0,797.0
720.0,758.0,737.0,805.0
743.0,756.0,706.0,732.0
761.0,760.0,696.0,657.0
745.0,765.0,686.0,626.0
740.0,763.0,703.0,654.0
748.0,756.0,723.0,708.0
727.0,749.0,758.0,753.0
720.0,748.0,781.0,771.0
737.0,752.0,804.0,757.0
743.0,751.0,817.0,763.0
740.0,749.0,797.0,819.0
737.0,745.0,777.0,859.0
738.0,745.0,750.0,853.0
737.0,744.0,697.0,809.0
737.0,736.0,673.0,760.0
737.0,722.0,677.0,708.0
742.0,725.0,704.0,680.0
745.0,729.0,752.0,692.0
755.0,734.0,790.0,709.0
768.0,736.0,798.0,724.0
768.0,731.0,786.0,698.0
766.0,738.0,760.0,682.0
745.0,751.0,730.0,737.0
755.0,762.0,708.0,810.0
764.0,754.0,725.0,801.0
747.0,755.0,754.0,742.0
744.0,757.0,749.0,745.0
741.0,759.0,737.0,766.0
745.0,764.0,739.0,774.0
752.0,764.0,753.0,771.0
755.0,755.0,753.0,747.0
758.0,750.0,743.0,733.0
762.0,745.0,759.0,702.0
745.0,742.0,769.0,725.0
735.0,740.0,761.0,768.0
738.0,743.0,750.0,764.0
746.0,746.0,731.0,735.0
758.0,745.0,702.0,717.0
765.0,746.0,686.0,718.0
761.0,746.0,694.0,743.0
764.0,756.0,703.0,782.0
776.0,760.0,742.0,820.0
773.0,754.0,791.0,804.0
791.0,748.0,814.0,759.0
817.0,743.0,842.0,714.0
787.0,736.0,845.0,669.0
740.0,740.0,808.0,686.0
762.0,739.0,742.0,696.0
740.0,723.0,681.0,737.0
709.0,700.0,644.0,796.0
741.0,703.0,623.0,804.0
744.0,717.0,655.0,774.0
755.0,720.0,708.0,787.0
729.0,726.0,751.0,814.0
718.0,737.0,804.0,813.0
721.0,754.0,832.0,785.0
726.0,771.0,830.0,765.0
743.0,777.0,832.0,736.0
740.0,772.0,818.0,696.0
739.0,767.0,783.0,669.0
751.0,763.0,744.0,676.0
751.0,756.0,723.0,671.0
747.0,750.0,697.0,692.0
743.0,754.0,675.0,773.0
741.0,759.0,658.0,797.0
745.0,758.0,678.0,772.0
745.0,755.0,705.0,755.0
758.0,749.0,729.0,767.0
753.0,744.0,791.0,790.0
739.0,739.0,844.0,798.0
730.0,745.0,826.0,788.0
737.0,748.0,787.0,795.0
743.0,740.0,756.0,774.0
748.0,744.0,735.0,758.0
741.0,741.0,742.0,764.0
742.0,734.0,782.0,740.0
745.0,728.0,809.0,695.0
742.0,730.0,809.0,675.0
764.0,743.0,743.0,662.0
771.0,754.0,702.0,671.0
785.0,765.0,673.0,706.0
817.0,762.0,645.0,743.0
797.0,751.0,658.0,785.0
768.0,746.0,712.0,822.0
743.0,742.0,763.0,826.0
735.0,739.0,784.0,815.0
725.0,745.0,805.0,781.0
743.0,751.0,811.0,769.0
738.0,755.0,801.0,745.0
714.0,756.0,801.0,681.0
718.0,754.0,767.0,632.0
743.0,750.0,735.0,612.0
757.0,751.0,725.0,637.0
758.0,750.0,715.0,721.0
749.0,745.0,696.0,857.0
753.0,742.0,699.0,892.0
749.0,740.0,726.0,860.0
731.0,737.0,782.0,776.0
729.0,735.0,823.0,704.0
732.0,738.0,805.0,702.0
740.0,742.0,780.0,720.0
760.0,747.0,768.0,718.0
777.0,753.0,759.0,715.0
782.0,756.0,732.0,743.0
783.0,756.0,724.0,730.0
763.0,748.0,723.0,708.0
732.0,741.0,716.0,718.0
736.0,739.0,709.0,745.0
749.0,743.0,724.0,773.0
734.0,743.0,722.0,762.0
721.0,747.0,737.0,751.0
722.0,747.0,761.0,763.0
726.0,745.0,781.0,776.0
729.0,745.0,788.0,766.0
743.0,740.0,790.0,754.0
747.0,739.0,791.0,761.0
745.0,738.0,784.0,761.0
746.0,740.0,758.0,726.0
757.0,760.0,751.0,716.0
791.0,780.0,763.0,738.0
825.0,776.0,762.0,729.0
825.0,763.0,743.0,717.0
808.0,728.0,709.0,739.0
795.0,689.0,685.0,747.0
713.0,680.0,676.0,737.0
680.0,692.0,681.0,765.0
701.0,703.0,706.0,796.0
715.0,716.0,750.0,768.0
740.0,744.0,785.0,735.0
764.0,760.0,799.0,704.0
780.0,767.0,803.0,688.0
775.0,770.0,788.0,703.0
763.0,747.0,763.0,731.0
757.0,694.0,747.0,732.0
756.0,681.0,729.0,764.0
729.0,701.0,695.0,853.0
741.0,716.0,690.0,841.0
755.0,724.0,723.0,758.0
756.0,726.0,737.0,705.0
737.0,739.0,726.0,697.0
718.0,768.0,717.0,725.0
725.0,789.0,740.0,737.0
728.0,785.0,767.0,729.0
736.0,774.0,780.0,727.0
733.0,761.0,792.0,735.0
731.0,755.0,801.0,740.0
738.0,752.0,784.0,741.0
743.0,749.0,759.0,743.0
745.0,754.0,728.0,761.0
751.0,755.0,703.0,765.0
757.0,761.0,683.0,725.0
760.0,767.0,676.0,706.0
769.0,770.0,700.0,720.0
769.0,767.0,758.0,728.0
758.0,759.0,813.0,753.0
783.0,750.0,811.0,771.0
756.0,749.0,792.0,785.0
748.0,745.0,774.0,773.0
750.0,746.0,754.0,743.0
728.0,741.0,742.0,720.0
719.0,740.0,752.0,698.0
722.0,742.0,763.0,649.0
739.0,746.0,769.0,621.0
751.0,748.0,767.0,632.0
752.0,750.0,758.0,659.0
749.0,752.0,740.0,748.0
745.0,750.0,714.0,882.0
748.0,751.0,691.0,924.0
747.0,751.0,689.0,865.0
744.0,751.0,732.0,791.0
743.0,749.0,759.0,756.0
745.0,747.0,773.0,748.0
744.0,745.0,783.0,728.0
744.0,744.0,805.0,722.0
744.0,745.0,778.0,718.0
743.0,744.0,758.0,710.0
744.0,744.0,747.0,697.0
746.0,744.0,745.0,686.0
744.0,744.0,750.0,701.0
745.0,743.0,750.0,721.0
749.0,744.0,752.0,752.0
750.0,745.0,754.0,774.0
752.0,747.0,747.0,790.0
751.0,747.0,740.0,782.0
749.0,749.0,737.0,778.0
749.0,746.0,744.0,771.0
747.0,746.0,768.0,744.0
749.0,746.0,798.0,728.0
748.0,745.0,801.0,735.0
749.0,746.0,793.0,734.0
748.0,745.0,788.0,730.0
747.0,745.0,775.0,723.0
745.0,746.0,753.0,722.0
744.0,748.0,738.0,704.0
742.0,744.0,707.0,698.0
746.0,742.0,684.0,718.0
754.0,738.0,676.0,729.0
763.0,738.0,671.0,734.0
775.0,739.0,671.0,745.0
766.0,744.0,681.0,762.0
740.0,748.0,731.0,733.0
735.0,752.0,762.0,726.0
740.0,752.0,772.0,730.0
753.0,750.0,775.0,744.0
771.0,748.0,785.0,771.0
768.0,748.0,802.0,783.0
765.0,751.0,801.0,756.0
753.0,750.0,793.0,752.0
739.0,740.0,789.0,761.0
741.0,731.0,772.0,766.0
757.0,731.0,751.0,737.0
756.0,728.0,735.0,725.0
755.0,723.0,734.0,729.0
739.0,728.0,735.0,731.0
733.0,747.0,737.0,724.0
759.0,774.0,740.0,721.0
772.0,776.0,741.0,723.0
787.0,771.0,741.0,733.0
780.0,758.0,745.0,740.0
759.0,745.0,743.0,740.0
720.0,744.0,734.0,739.0
713.0,736.0,736.0,736.0
726.0,734.0,741.0,734.0
727.0,740.0,750.0,734.0
734.0,749.0,765.0,737.0
733.0,749.0,767.0,733.0
734.0,741.0,761.0,707.0
735.0,735.0,761.0,697.0
736.0,735.0,761.0,689.0
738.0,738.0,754.0,696.0
742.0,741.0,745.0,737.0
744.0,744.0,739.0,760.0
752.0,749.0,740.0,770.0
754.0,753.0,747.0,772.0
758.0,755.0,754.0,762.0
759.0,754.0,751.0,754.0
734.0,749.0,754.0,756.0
735.0,738.0,756.0,749.0
747.0,733.0,753.0,744.0
755.0,730.0,752.0,743.0
760.0,727.0,751.0,741.0
748.0,731.0,750.0,737.0
746.0,736.0,749.0,735.0
737.0,740.0,748.0,732.0
745.0,744.0,745.0,723.0
751.0,754.0,744.0,716.0
753.0,757.0,740.0,721.0
754.0,753.0,739.0,724.0
765.0,752.0,737.0,743.0
759.0,753.0,739.0,776.0
761.0,752.0,740.0,772.0
760.0,752.0,746.0,740.0
745.0,750.0,745.0,728.0
735.0,749.0,750.0,722.0
742.0,752.0,751.0,716.0
744.0,749.0,750.0,722.0
744.0,748.0,750.0,724.0
741.0,748.0,745.0,718.0
744.0,747.0,742.0,715.0
744.0,746.0,742.0,711.0
744.0,745.0,744.0,728.0
748.0,744.0,745.0,742.0
749.0,743.0,752.0,733.0
747.0,742.0,752.0,729.0
745.0,743.0,728.0,726.0
745.0,744.0,710.0,734.0
748.0,745.0,709.0,742.0
750.0,747.0,735.0,743.0
751.0,748.0,770.0,750.0
753.0,750.0,796.0,747.0
752.0,751.0,805.0,742.0
752.0,750.0,808.0,729.0
752.0,748.0,795.0,724.0
749.0,747.0,771.0,718.0
748.0,746.0,750.0,717.0
745.0,744.0,744.0,726.0
747.0,744.0,739.0,728.0
744.0,742.0,734.0,728.0
742.0,741.0,744.0,751.0
741.0,738.0,759.0,752.0
740.0,738.0,757.0,743.0
743.0,740.0,750.0,738.0
746.0,744.0,746.0,737.0
747.0,746.0,743.0,737.0
750.0,749.0,739.0,737.0
750.0,750.0,737.0,740.0
752.0,752.0,731.0,744.0
753.0,751.0,733.0,745.0
751.0,750.0,736.0,741.0
751.0,749.0,741.0,740.0
750.0,748.0,745.0,737.0
749.0,745.0,747.0,737.0
748.0,744.0,744.0,733.0
746.0,745.0,740.0,727.0
747.0,745.0,735.0,725.0
747.0,744.0,732.0,722.0
747.0,744.0,732.0,717.0
746.0,744.0,732.0,712.0
749.0,744.0,733.0,711.0
750.0,745.0,734.0,713.0
755.0,748.0,736.0,729.0
757.0,747.0,746.0,756.0
757.0,748.0,753.0,754.0
761.0,748.0,754.0,753.0
761.0,747.0,756.0,750.0
744.0,748.0,755.0,746.0
746.0,748.0,752.0,743.0
747.0,746.0,746.0,740.0
747.0,746.0,744.0,735.0
750.0,744.0,742.0,732.0
753.0,746.0,740.0,729.0
750.0,744.0,739.0,725.0
745.0,741.0,736.0,720.0
742.0,741.0,730.0,721.0
738.0,742.0,728.0,719.0
740.0,743.0,733.0,720.0
746.0,745.0,740.0,722.0
749.0,746.0,746.0,726.0
750.0,747.0,750.0,735.0
753.0,749.0,757.0,741.0
753.0,749.0,754.0,738.0
752.0,750.0,749.0,738.0
746.0,749.0,748.0,736.0
751.0,747.0,746.0,734.0
759.0,747.0,747.0,733.0
765.0,748.0,746.0,737.0
769.0,748.0,741.0,734.0
769.0,745.0,738.0,732.0
738.0,742.0,738.0,732.0
716.0,739.0,738.0,730.0
741.0,739.0,738.0,729.0
750.0,741.0,739.0,728.0
753.0,744.0,743.0,727.0
753.0,745.0,742.0,731.0
756.0,747.0,743.0,734.0
753.0,748.0,746.0,739.0
753.0,749.0,750.0,740.0
748.0,748.0,753.0,742.0
734.0,746.0,755.0,741.0
740.0,745.0,753.0,739.0
745.0,745.0,747.0,736.0
746.0,744.0,744.0,734.0
745.0,743.0,744.0,730.0
742.0,742.0,745.0,729.0
742.0,741.0,748.0,724.0
741.0,740.0,750.0,722.0
741.0,741.0,747.0,720.0
740.0,744.0,745.0,720.0
744.0,747.0,746.0,723.0
748.0,750.0,749.0,727.0
749.0,749.0,755.0,733.0
755.0,753.0,758.0,734.0
764.0,753.0,755.0,731.0
759.0,750.0,750.0,725.0
751.0,749.0,747.0,726.0
749.0,747.0,741.0,729.0
746.0,744.0,747.0,732.0
749.0,743.0,750.0,736.0
749.0,742.0,755.0,736.0
749.0,741.0,759.0,734.0
747.0,740.0,763.0,725.0
744.0,739.0,764.0,721.0
744.0,738.0,761.0,723.0
743.0,739.0,753.0,724.0
745.0,738.0,744.0,724.0
747.0,743.0,742.0,729.0
749.0,744.0,744.0,738.0
749.0,746.0,749.0,744.0
750.0,746.0,755.0,743.0
753.0,749.0,755.0,740.0
753.0,750.0,746.0,741.0
752.0,750.0,741.0,742.0
752.0,749.0,736.0,742.0
751.0,748.0,737.0,737.0
750.0,746.0,746.0,735.0
747.0,745.0,745.0,732.0
747.0,744.0,745.0,727.0
745.0,742.0,742.0,721.0
746.0,741.0,745.0,718.0
745.0,739.0,750.0,715.0
745.0,740.0,753.0,715.0
747.0,741.0,750.0,716.0
749.0,744.0,748.0,720.0
749.0,745.0,743.0,723.0
752.0,745.0,742.0,732.0
753.0,748.0,742.0,738.0
754.0,750.0,736.0,741.0
754.0,750.0,736.0,745.0
752.0,750.0,740.0,745.0
751.0,748.0,748.0,739.0
750.0,747.0,747.0,734.0
749.0,745.0,745.0,732.0
748.0,744.0,743.0,728.0
747.0,743.0,742.0,724.0
745.0,742.0,738.0,721.0
746.0,741.0,734.0,722.0
745.0,741.0,732.0,722.0
744.0,741.0,728.0,722.0
748.0,743.0,726.0,722.0
749.0,745.0,728.0,725.0
750.0,745.0,729.0,726.0
752.0,749.0,733.0,724.0
755.0,752.0,737.0,728.0
755.0,750.0,738.0,730.0
756.0,752.0,741.0,734.0
754.0,750.0,740.0,745.0
752.0,748.0,743.0,752.0
749.0,745.0,745.0,743.0
750.0,744.0,742.0,734.0
748.0,742.0,745.0,737.0
746.0,740.0,745.0,733.0
746.0,739.0,745.0,729.0
745.0,739.0,743.0,721.0
746.0,739.0,741.0,713.0
746.0,741.0,738.0,709.0
749.0,743.0,738.0,718.0
750.0,745.0,738.0,727.0
753.0,744.0,741.0,740.0
753.0,747.0,742.0,750.0
753.0,746.0,748.0,750.0
753.0,747.0,748.0,742.0
753.0,746.0,746.0,739.0
752.0,746.0,745.0,737.0
751.0,746.0,744.0,735.0
749.0,746.0,741.0,733.0
748.0,742.0,740.0,731.0
746.0,739.0,738.0,730.0
747.0,739.0,736.0,727.0
747.0,743.0,737.0,726.0
748.0,742.0,736.0,723.0
750.0,742.0,736.0,722.0
751.0,744.0,737.0,725.0
752.0,744.0,740.0,728.0
749.0,747.0,743.0,730.0
751.0,752.0,745.0,737.0
752.0,753.0,748.0,738.0
749.0,752.0,749.0,738.0
752.0,751.0,750.0,738.0
751.0,750.0,750.0,736.0
748.0,749.0,748.0,736.0
748.0,748.0,747.0,735.0
749.0,747.0,745.0,734.0
749.0,745.0,742.0,731.0
749.0,743.0,742.0,728.0
747.0,742.0,739.0,726.0
746.0,742.0,736.0,725.0
745.0,741.0,736.0,722.0
745.0,742.0,736.0,722.0
747.0,744.0,739.0,725.0
750.0,745.0,741.0,728.0
754.0,748.0,743.0,730.0
757.0,749.0,746.0,734.0
757.0,751.0,750.0,738.0
754.0,751.0,751.0,740.0
753.0,749.0,750.0,739.0
752.0,749.0,749.0,738.0
751.0,747.0,748.0,735.0
749.0,745.0,745.0,734.0
747.0,744.0,744.0,731.0
746.0,742.0,742.0,731.0
746.0,742.0,738.0,727.0
745.0,741.0,738.0,725.0
747.0,739.0,736.0,723.0
752.0,739.0,735.0,722.0
754.0,741.0,735.0,723.0
757.0,746.0,738.0,727.0
761.0,747.0,741.0,728.0
761.0,749.0,744.0,732.0
752.0,748.0,747.0,734.0
752.0,749.0,749.0,739.0
754.0,750.0,750.0,739.0
749.0,750.0,749.0,737.0
748.0,748.0,749.0,737.0
747.0,745.0,747.0,736.0
751.0,744.0,744.0,733.0
748.0,744.0,741.0,730.0
748.0,743.0,741.0,727.0
748.0,742.0,737.0,725.0
747.0,742.0,736.0,725.0
745.0,742.0,735.0,722.0
747.0,741.0,734.0,723.0
748.0,743.0,736.0,726.0
749.0,745.0,740.0,727.0
750.0,747.0,744.0,730.0
752.0,749.0,746.0,732.0
754.0,750.0,747.0,736.0
755.0,750.0,749.0,736.0
754.0,749.0,750.0,736.0
752.0,747.0,748.0,734.0
751.0,746.0,750.0,734.0
750.0,744.0,750.0,733.0
749.0,749.0,748.0,731.0
749.0,743.0,742.0,731.0
748.0,743.0,739.0,731.0
747.0,742.0,736.0,730.0
748.0,742.0,734.0,730.0
748.0,741.0,734.0,730.0
746.0,742.0,733.0,731.0
749.0,743.0,736.0,731.0
751.0,745.0,739.0,734.0
753.0,748.0,744.0,735.0
754.0,748.0,746.0,737.0
756.0,750.0,749.0,738.0
755.0,750.0,747.0,734.0
755.0,750.0,746.0,733.0
754.0,749.0,746.0,731.0
753.0,747.0,744.0,728.0
752.0,745.0,744.0,729.0
749.0,744.0,742.0,730.0
750.0,743.0,739.0,733.0
749.0,741.0,734.0,733.0
746.0,741.0,733.0,728.0
746.0,741.0,733.0,723.0
748.0,741.0,734.0,718.0
749.0,743.0,737.0,716.0
750.0,745.0,745.0,720.0
751.0,745.0,749.0,723.0
752.0,747.0,751.0,725.0
752.0,748.0,752.0,733.0
754.0,750.0,752.0,744.0
756.0,752.0,750.0,750.0
755.0,749.0,749.0,744.0
754.0,748.0,748.0,743.0
751.0,747.0,746.0,740.0
751.0,745.0,745.0,735.0
750.0,745.0,739.0,729.0
750.0,742.0,737.0,725.0
748.0,738.0,734.0,721.0
749.0,737.0,732.0,722.0
747.0,736.0,731.0,721.0
748.0,737.0,730.0,725.0
749.0,740.0,734.0,732.0
752.0,742.0,741.0,739.0
753.0,745.0,744.0,743.0
752.0,748.0,746.0,741.0
754.0,751.0,750.0,746.0
753.0,753.0,749.0,744.0
753.0,754.0,748.0,745.0
753.0,751.0,747.0,744.0
753.0,750.0,745.0,740.0
752.0,747.0,744.0,734.0
751.0,745.0,744.0,733.0
748.0,747.0,742.0,735.0
746.0,744.0,741.0,730.0
749.0,742.0,739.0,727.0
748.0,741.0,735.0,726.0
748.0,742.0,734.0,724.0
749.0,741.0,735.0,726.0
749.0,743.0,737.0,727.0
751.0,745.0,739.0,730.0
753.0,748.0,745.0,734.0
753.0,749.0,752.0,734.0
754.0,749.0,761.0,740.0
756.0,750.0,763.0,740.0
755.0,750.0,760.0,735.0
756.0,748.0,754.0,737.0
753.0,748.0,748.0,735.0
750.0,745.0,746.0,735.0
750.0,744.0,740.0,734.0
748.0,743.0,736.0,729.0
746.0,742.0,733.0,728.0
747.0,742.0,732.0,727.0
748.0,741.0,732.0,726.0
750.0,741.0,736.0,727.0
748.0,743.0,751.0,725.0
750.0,744.0,753.0,727.0
752.0,746.0,753.0,729.0
754.0,748.0,754.0,732.0
756.0,749.0,753.0,735.0
757.0,749.0,752.0,738.0
757.0,751.0,750.0,742.0
755.0,749.0,747.0,742.0
755.0,748.0,743.0,740.0
753.0,746.0,737.0,739.0
751.0,744.0,733.0,738.0
749.0,743.0,733.0,734.0
750.0,741.0,734.0,732.0
748.0,740.0,732.0,729.0
748.0,741.0,733.0,728.0
747.0,740.0,732.0,726.0
747.0,741.0,732.0,726.0
750.0,744.0,735.0,729.0
751.0,747.0,738.0,733.0
752.0,747.0,740.0,734.0
754.0,745.0,743.0,738.0
754.0,743.0,746.0,739.0
756.0,740.0,746.0,739.0
755.0,736.0,749.0,741.0
756.0,735.0,748.0,740.0
755.0,736.0,746.0,740.0
752.0,737.0,744.0,737.0
750.0,737.0,743.0,735.0
750.0,737.0,740.0,732.0
749.0,739.0,740.0,727.0
749.0,742.0,739.0,725.0
747.0,746.0,738.0,723.0
745.0,747.0,735.0,722.0
746.0,747.0,735.0,727.0
750.0,747.0,735.0,733.0
752.0,749.0,737.0,734.0
752.0,754.0,739.0,739.0
754.0,755.0,743.0,744.0
757.0,758.0,746.0,747.0
756.0,756.0,747.0,747.0
754.0,755.0,748.0,746.0
752.0,753.0,747.0,742.0
751.0,752.0,746.0,738.0
751.0,750.0,743.0,733.0
750.0,749.0,742.0,730.0
750.0,746.0,739.0,727.0
749.0,744.0,736.0,725.0
750.0,744.0,736.0,725.0
746.0,743.0,734.0,720.0
745.0,744.0,733.0,717.0
749.0,745.0,734.0,719.0
754.0,748.0,737.0,724.0
758.0,748.0,740.0,726.0
763.0,749.0,742.0,730.0
766.0,750.0,744.0,737.0
755.0,750.0,747.0,743.0
753.0,750.0,749.0,745.0
753.0,750.0,749.0,745.0
748.0,749.0,747.0,744.0
747.0,748.0,743.0,743.0
747.0,748.0,742.0,744.0
747.0,745.0,736.0,745.0
747.0,744.0,734.0,745.0
746.0,742.0,732.0,743.0
748.0,742.0,732.0,740.0
749.0,742.0,733.0,737.0
749.0,741.0,734.0,737.0
749.0,743.0,741.0,737.0
750.0,745.0,745.0,737.0
752.0,745.0,745.0,738.0
753.0,747.0,748.0,739.0
755.0,750.0,752.0,743.0
754.0,750.0,752.0,744.0
755.0,750.0,751.0,746.0
754.0,750.0,748.0,744.0
754.0,748.0,747.0,742.0
751.0,746.0,747.0,740.0
750.0,744.0,746.0,739.0
748.0,744.0,742.0,736.0
748.0,742.0,741.0,734.0
748.0,741.0,737.0,732.0
747.0,743.0,734.0,731.0
747.0,742.0,734.0,732.0
748.0,743.0,736.0,733.0
750.0,744.0,740.0,736.0
751.0,745.0,742.0,738.0
753.0,747.0,747.0,740.0
754.0,748.0,746.0,741.0
756.0,749.0,748.0,744.0
755.0,749.0,749.0,744.0
755.0,748.0,750.0,744.0
754.0,748.0,749.0,742.0
753.0,746.0,746.0,741.0
751.0,745.0,744.0,739.0
750.0,744.0,743.0,737.0
750.0,743.0,741.0,735.0
749.0,742.0,738.0,733.0
748.0,743.0,737.0,731.0
748.0,741.0,735.0,730.0
748.0,741.0,735.0,730.0
749.0,743.0,739.0,733.0
750.0,746.0,742.0,733.0
751.0,746.0,745.0,735.0
754.0,748.0,749.0,741.0
755.0,749.0,751.0,743.0
756.0,750.0,753.0,745.0
757.0,750.0,752.0,745.0
755.0,748.0,748.0,744.0
754.0,747.0,745.0,744.0
750.0,745.0,742.0,740.0
753.0,745.0,741.0,739.0
749.0,744.0,740.0,736.0
747.0,744.0,739.0,731.0
749.0,744.0,736.0,731.0
750.0,742.0,737.0,730.0
749.0,742.0,737.0,724.0
749.0,741.0,739.0,726.0
750.0,741.0,741.0,729.0
750.0,742.0,742.0,734.0
752.0,745.0,742.0,736.0
753.0,746.0,744.0,742.0
755.0,748.0,745.0,744.0
756.0,750.0,747.0,747.0
756.0,750.0,751.0,748.0
755.0,750.0,749.0,744.0
754.0,750.0,750.0,740.0
752.0,748.0,749.0,738.0
751.0,746.0,747.0,735.0
749.0,742.0,744.0,734.0
749.0,740.0,739.0,732.0
749.0,741.0,735.0,728.0
749.0,740.0,732.0,724.0
749.0,740.0,730.0,723.0
749.0,740.0,731.0,723.0
750.0,744.0,735.0,728.0
750.0,745.0,740.0,728.0
753.0,749.0,742.0,733.0
751.0,750.0,742.0,741.0
751.0,751.0,744.0,750.0
754.0,749.0,743.0,757.0
757.0,749.0,743.0,761.0
756.0,747.0,745.0,757.0
754.0,746.0,744.0,753.0
750.0,743.0,743.0,747.0
750.0,739.0,742.0,743.0
749.0,740.0,740.0,739.0
748.0,738.0,738.0,735.0
749.0,737.0,737.0,736.0
748.0,736.0,734.0,735.0
748.0,734.0,734.0,734.0
749.0,734.0,737.0,737.0
750.0,739.0,741.0,738.0
753.0,743.0,742.0,740.0
754.0,746.0,745.0,743.0
756.0,745.0,748.0,745.0
758.0,746.0,749.0,746.0
759.0,750.0,750.0,747.0
759.0,753.0,749.0,746.0
758.0,754.0,748.0,746.0
755.0,751.0,746.0,743.0
754.0,749.0,744.0,742.0
750.0,749.0,741.0,738.0
748.0,748.0,739.0,738.0
746.0,747.0,736.0,734.0
749.0,746.0,734.0,732.0
751.0,744.0,733.0,730.0
748.0,744.0,735.0,730.0
747.0,745.0,738.0,730.0
750.0,748.0,741.0,735.0
754.0,749.0,744.0,740.0
755.0,749.0,747.0,747.0
751.0,751.0,751.0,753.0
752.0,751.0,753.0,756.0
755.0,751.0,753.0,754.0
753.0,749.0,751.0,750.0
752.0,747.0,749.0,747.0
750.0,746.0,746.0,743.0
750.0,744.0,745.0,742.0
750.0,744.0,741.0,739.0
748.0,743.0,741.0,737.0
747.0,743.0,738.0,734.0
747.0,742.0,737.0,730.0
747.0,741.0,736.0,729.0
748.0,743.0,736.0,732.0
747.0,746.0,738.0,735.0
751.0,747.0,741.0,736.0
755.0,749.0,741.0,737.0
755.0,750.0,743.0,739.0
755.0,751.0,747.0,743.0
756.0,751.0,749.0,746.0
755.0,750.0,749.0,747.0
754.0,749.0,748.0,748.0
752.0,748.0,748.0,748.0
752.0,746.0,748.0,746.0
750.0,745.0,743.0,741.0
750.0,743.0,739.0,735.0
748.0,742.0,735.0,730.0
746.0,741.0,735.0,732.0
746.0,738.0,735.0,732.0
748.0,738.0,736.0,731.0
750.0,740.0,736.0,731.0
750.0,742.0,739.0,737.0
750.0,740.0,743.0,744.0
755.0,746.0,745.0,748.0
756.0,750.0,746.0,748.0
756.0,751.0,746.0,747.0
758.0,753.0,749.0,748.0
754.0,751.0,749.0,745.0
754.0,749.0,751.0,745.0
752.0,745.0,748.0,745.0
750.0,744.0,747.0,743.0
750.0,743.0,745.0,742.0
749.0,743.0,743.0,738.0
748.0,742.0,738.0,736.0
748.0,742.0,736.0,733.0
749.0,742.0,736.0,733.0
749.0,743.0,736.0,732.0
751.0,745.0,738.0,734.0
751.0,746.0,741.0,736.0
754.0,748.0,743.0,741.0
754.0,749.0,746.0,745.0
756.0,750.0,749.0,752.0
756.0,750.0,748.0,752.0
756.0,750.0,749.0,751.0
756.0,748.0,750.0,750.0
754.0,747.0,748.0,748.0
751.0,744.0,745.0,743.0
750.0,739.0,743.0,743.0
750.0,735.0,742.0,740.0
750.0,735.0,740.0,738.0
749.0,737.0,740.0,737.0
746.0,738.0,740.0,733.0
748.0,741.0,741.0,731.0
749.0,743.0,743.0,732.0
751.0,746.0,745.0,736.0
753.0,750.0,745.0,740.0
755.0,754.0,744.0,745.0
756.0,754.0,742.0,749.0
757.0,752.0,743.0,752.0
756.0,751.0,746.0,752.0
756.0,751.0,745.0,752.0
755.0,750.0,746.0,749.0
753.0,748.0,745.0,747.0
751.0,747.0,744.0,744.0
750.0,744.0,743.0,743.0
749.0,745.0,742.0,740.0
748.0,743.0,742.0,738.0
747.0,743.0,741.0,738.0
748.0,742.0,738.0,739.0
749.0,742.0,736.0,738.0
750.0,744.0,738.0,740.0
750.0,746.0,740.0,741.0
753.0,745.0,743.0,741.0
754.0,748.0,747.0,741.0
756.0,750.0,751.0,743.0
756.0,749.0,751.0,742.0
756.0,750.0,752.0,742.0
755.0,747.0,752.0,738.0
754.0,746.0,752.0,738.0
752.0,745.0,749.0,740.0
753.0,744.0,748.0,743.0
750.0,741.0,742.0,739.0
750.0,738.0,737.0,737.0
749.0,736.0,734.0,738.0
748.0,733.0,733.0,741.0
747.0,735.0,736.0,747.0
748.0,739.0,738.0,748.0
