746.0,741.0,740.0,742.0
747.0,744.0,745.0,743.0
752.0,747.0,753.0,747.0
754.0,751.0,756.0,750.0
750.0,753.0,759.0,752.0
745.0,754.0,760.0,754.0
747.0,751.0,756.0,752.0
748.0,749.0,752.0,750.0
745.0,746.0,748.0,746.0
744.0,744.0,746.0,745.0
742.0,743.0,743.0,741.0
741.0,741.0,741.0,739.0
738.0,739.0,740.0,736.0
737.0,738.0,737.0,735.0
736.0,737.0,738.0,735.0
737.0,737.0,739.0,736.0
740.0,740.0,742.0,738.0
743.0,744.0,745.0,743.0
745.0,746.0,747.0,745.0
748.0,748.0,749.0,748.0
751.0,751.0,755.0,752.0
752.0,751.0,757.0,753.0
752.0,751.0,755.0,754.0
750.0,749.0,754.0,752.0
748.0,746.0,751.0,750.0
745.0,742.0,749.0,746.0
744.0,738.0,746.0,745.0
742.0,733.0,745.0,742.0
740.0,728.0,742.0,740.0
739.0,727.0,741.0,738.0
737.0,726.0,739.0,737.0
738.0,728.0,738.0,737.0
739.0,730.0,741.0,738.0
742.0,733.0,745.0,742.0
743.0,739.0,746.0,744.0
747.0,746.0,749.0,747.0
749.0,751.0,751.0,749.0
752.0,753.0,751.0,751.0
753.0,751.0,750.0,753.0
751.0,750.0,749.0,751.0
750.0,750.0,749.0,749.0
747.0,748.0,747.0,747.0
745.0,745.0,746.0,745.0
742.0,743.0,744.0,742.0
742.0,743.0,745.0,740.0
742.0,741.0,744.0,738.0
741.0,740.0,744.0,737.0
740.0,737.0,741.0,736.0
740.0,738.0,740.0,735.0
740.0,743.0,741.0,738.0
737.0,746.0,744.0,742.0
741.0,747.0,746.0,744.0
746.0,750.0,748.0,747.0
750.0,752.0,752.0,751.0
753.0,752.0,754.0,752.0
752.0,752.0,755.0,754.0
751.0,748.0,754.0,751.0
749.0,745.0,751.0,750.0
746.0,741.0,749.0,747.0
744.0,740.0,749.0,745.0
742.0,740.0,743.0,742.0
740.0,739.0,741.0,741.0
739.0,738.0,739.0,739.0
736.0,739.0,737.0,736.0
737.0,740.0,737.0,736.0
738.0,742.0,739.0,736.0
741.0,743.0,742.0,739.0
744.0,746.0,746.0,742.0
748.0,748.0,749.0,746.0
749.0,750.0,751.0,748.0
753.0,753.0,755.0,751.0
754.0,752.0,756.0,752.0
751.0,752.0,755.0,752.0
750.0,749.0,753.0,751.0
749.0,747.0,751.0,746.0
747.0,744.0,749.0,743.0
743.0,743.0,746.0,741.0
740.0,740.0,745.0,739.0
739.0,738.0,741.0,738.0
738.0,738.0,740.0,740.0
737.0,737.0,738.0,740.0
737.0,738.0,737.0,740.0
738.0,740.0,739.0,740.0
742.0,744.0,742.0,743.0
747.0,745.0,744.0,744.0
751.0,748.0,749.0,747.0
753.0,750.0,751.0,750.0
755.0,752.0,752.0,751.0
755.0,753.0,752.0,753.0
750.0,750.0,752.0,753.0
746.0,749.0,751.0,751.0
745.0,745.0,749.0,751.0
744.0,742.0,747.0,746.0
741.0,737.0,745.0,743.0
741.0,736.0,744.0,741.0
739.0,734.0,741.0,737.0
738.0,734.0,740.0,735.0
737.0,734.0,738.0,735.0
737.0,734.0,739.0,736.0
738.0,740.0,740.0,738.0
742.0,744.0,744.0,741.0
744.0,748.0,746.0,744.0
747.0,749.0,748.0,746.0
750.0,750.0,750.0,750.0
752.0,750.0,751.0,751.0
753.0,750.0,753.0,752.0
750.0,748.0,749.0,751.0
747.0,746.0,745.0,748.0
744.0,744.0,741.0,746.0
742.0,743.0,742.0,744.0
741.0,742.0,740.0,742.0
739.0,741.0,742.0,740.0
740.0,740.0,743.0,739.0
741.0,739.0,742.0,737.0
738.0,739.0,742.0,737.0
739.0,739.0,744.0,738.0
741.0,743.0,746.0,741.0
744.0,745.0,747.0,744.0
746.0,748.0,750.0,747.0
749.0,749.0,753.0,749.0
752.0,752.0,756.0,753.0
753.0,752.0,756.0,755.0
753.0,751.0,756.0,755.0
750.0,750.0,754.0,751.0
749.0,747.0,752.0,751.0
745.0,745.0,749.0,747.0
743.0,742.0,746.0,745.0
742.0,741.0,744.0,742.0
742.0,738.0,741.0,739.0
742.0,736.0,741.0,737.0
742.0,734.0,738.0,734.0
744.0,734.0,738.0,735.0
744.0,736.0,738.0,736.0
743.0,740.0,742.0,740.0
745.0,742.0,744.0,744.0
747.0,745.0,747.0,748.0
747.0,750.0,750.0,750.0
748.0,752.0,751.0,753.0
753.0,752.0,754.0,754.0
755.0,750.0,753.0,754.0
753.0,749.0,751.0,752.0
743.0,747.0,748.0,750.0
742.0,743.0,747.0,747.0
742.0,743.0,745.0,744.0
740.0,742.0,744.0,740.0
737.0,739.0,741.0,738.0
735.0,739.0,740.0,736.0
737.0,737.0,740.0,734.0
740.0,738.0,740.0,733.0
741.0,740.0,743.0,735.0
742.0,743.0,745.0,740.0
744.0,746.0,747.0,743.0
748.0,748.0,747.0,748.0
751.0,751.0,750.0,754.0
752.0,751.0,753.0,757.0
751.0,752.0,754.0,757.0
750.0,750.0,753.0,754.0
748.0,748.0,751.0,749.0
745.0,745.0,748.0,744.0
744.0,744.0,744.0,742.0
742.0,742.0,742.0,737.0
744.0,739.0,739.0,735.0
744.0,738.0,738.0,733.0
743.0,737.0,736.0,732.0
743.0,737.0,736.0,737.0
743.0,738.0,739.0,741.0
738.0,740.0,744.0,747.0
734.0,743.0,748.0,748.0
742.0,745.0,751.0,750.0
747.0,748.0,754.0,750.0
750.0,751.0,757.0,753.0
752.0,751.0,757.0,756.0
751.0,750.0,755.0,754.0
749.0,748.0,754.0,754.0
747.0,746.0,751.0,752.0
745.0,743.0,749.0,747.0
742.0,741.0,744.0,744.0
741.0,739.0,739.0,741.0
738.0,737.0,735.0,737.0
737.0,737.0,734.0,736.0
737.0,736.0,733.0,734.0
736.0,737.0,734.0,734.0
739.0,739.0,738.0,738.0
742.0,743.0,742.0,741.0
744.0,744.0,746.0,742.0
747.0,747.0,749.0,746.0
750.0,748.0,753.0,751.0
752.0,750.0,755.0,754.0
753.0,751.0,757.0,757.0
751.0,749.0,755.0,754.0
749.0,749.0,755.0,756.0
746.0,746.0,753.0,748.0
744.0,744.0,749.0,746.0
741.0,742.0,747.0,742.0
741.0,740.0,743.0,741.0
739.0,737.0,741.0,740.0
737.0,735.0,740.0,736.0
737.0,735.0,738.0,736.0
738.0,737.0,740.0,736.0
739.0,739.0,742.0,740.0
743.0,742.0,745.0,743.0
747.0,743.0,748.0,747.0
746.0,747.0,750.0,749.0
752.0,751.0,754.0,754.0
752.0,751.0,755.0,754.0
752.0,753.0,755.0,753.0
751.0,750.0,753.0,752.0
749.0,747.0,750.0,750.0
746.0,744.0,748.0,748.0
744.0,743.0,745.0,745.0
743.0,739.0,744.0,743.0
740.0,737.0,741.0,739.0
738.0,737.0,739.0,738.0
738.0,735.0,738.0,736.0
736.0,736.0,738.0,735.0
738.0,737.0,740.0,736.0
743.0,741.0,743.0,741.0
743.0,745.0,746.0,743.0
747.0,749.0,747.0,748.0
749.0,750.0,751.0,750.0
751.0,751.0,754.0,752.0
752.0,753.0,754.0,754.0
750.0,750.0,753.0,753.0
749.0,749.0,751.0,752.0
747.0,747.0,750.0,749.0
745.0,745.0,747.0,746.0
742.0,742.0,744.0,742.0
742.0,741.0,741.0,741.0
739.0,738.0,738.0,738.0
738.0,738.0,738.0,737.0
737.0,736.0,737.0,736.0
737.0,735.0,735.0,736.0
740.0,735.0,738.0,738.0
743.0,736.0,741.0,742.0
744.0,738.0,743.0,743.0
749.0,741.0,745.0,748.0
754.0,745.0,750.0,751.0
755.0,747.0,751.0,752.0
756.0,750.0,754.0,754.0
754.0,750.0,754.0,751.0
752.0,750.0,753.0,751.0
744.0,750.0,750.0,748.0
740.0,747.0,749.0,746.0
738.0,744.0,746.0,744.0
739.0,741.0,744.0,741.0
741.0,739.0,741.0,738.0
740.0,738.0,738.0,736.0
740.0,737.0,738.0,735.0
740.0,737.0,738.0,737.0
742.0,741.0,742.0,738.0
741.0,743.0,746.0,743.0
742.0,748.0,750.0,747.0
747.0,749.0,752.0,750.0
750.0,752.0,756.0,753.0
751.0,752.0,755.0,754.0
751.0,747.0,756.0,753.0
747.0,744.0,754.0,751.0
744.0,740.0,751.0,749.0
741.0,737.0,748.0,745.0
739.0,734.0,746.0,741.0
738.0,733.0,743.0,739.0
738.0,733.0,740.0,736.0
742.0,733.0,735.0,736.0
741.0,737.0,731.0,736.0
738.0,741.0,732.0,737.0
740.0,742.0,734.0,740.0
742.0,744.0,739.0,743.0
744.0,746.0,742.0,743.0
748.0,751.0,746.0,746.0
751.0,753.0,752.0,749.0
752.0,754.0,757.0,752.0
754.0,754.0,760.0,755.0
753.0,751.0,758.0,754.0
751.0,750.0,755.0,753.0
748.0,748.0,752.0,750.0
746.0,745.0,748.0,749.0
744.0,743.0,745.0,745.0
745.0,742.0,743.0,743.0
742.0,740.0,740.0,739.0
738.0,739.0,740.0,737.0
738.0,738.0,739.0,736.0
736.0,739.0,740.0,735.0
737.0,740.0,743.0,739.0
741.0,744.0,745.0,743.0
745.0,745.0,748.0,746.0
749.0,748.0,750.0,749.0
752.0,750.0,754.0,753.0
752.0,751.0,755.0,754.0
754.0,751.0,756.0,755.0
752.0,748.0,754.0,754.0
749.0,745.0,752.0,754.0
747.0,742.0,749.0,748.0
746.0,743.0,746.0,746.0
744.0,742.0,745.0,743.0
742.0,740.0,742.0,741.0
740.0,737.0,740.0,739.0
737.0,738.0,739.0,735.0
738.0,739.0,736.0,736.0
739.0,741.0,735.0,736.0
741.0,740.0,739.0,741.0
741.0,745.0,742.0,744.0
745.0,748.0,745.0,748.0
747.0,750.0,747.0,750.0
750.0,751.0,751.0,753.0
754.0,751.0,754.0,755.0
754.0,751.0,754.0,753.0
754.0,749.0,755.0,752.0
747.0,747.0,754.0,750.0
744.0,744.0,751.0,747.0
742.0,743.0,747.0,744.0
741.0,741.0,746.0,742.0
739.0,739.0,743.0,738.0
738.0,738.0,741.0,737.0
737.0,737.0,739.0,736.0
737.0,737.0,739.0,736.0
739.0,739.0,741.0,738.0
743.0,743.0,744.0,743.0
745.0,744.0,747.0,744.0
748.0,748.0,749.0,748.0
751.0,750.0,753.0,751.0
752.0,751.0,754.0,753.0
753.0,752.0,755.0,755.0
751.0,750.0,753.0,753.0
749.0,748.0,751.0,750.0
746.0,744.0,749.0,748.0
745.0,738.0,746.0,745.0
742.0,734.0,742.0,743.0
741.0,731.0,743.0,740.0
739.0,728.0,741.0,738.0
738.0,729.0,739.0,736.0
737.0,730.0,739.0,735.0
738.0,733.0,737.0,736.0
743.0,738.0,740.0,739.0
746.0,745.0,742.0,742.0
749.0,749.0,745.0,745.0
753.0,752.0,746.0,748.0
757.0,755.0,750.0,752.0
752.0,754.0,753.0,753.0
747.0,754.0,754.0,753.0
747.0,751.0,754.0,752.0
745.0,749.0,752.0,749.0
744.0,747.0,750.0,746.0
744.0,745.0,745.0,744.0
741.0,742.0,747.0,740.0
740.0,741.0,742.0,737.0
738.0,741.0,739.0,735.0
736.0,739.0,738.0,733.0
737.0,739.0,737.0,734.0
738.0,740.0,737.0,738.0
742.0,743.0,742.0,745.0
743.0,745.0,745.0,747.0
747.0,747.0,749.0,749.0
749.0,750.0,752.0,749.0
751.0,752.0,755.0,751.0
753.0,752.0,751.0,752.0
750.0,751.0,746.0,751.0
750.0,749.0,743.0,750.0
748.0,747.0,740.0,747.0
744.0,743.0,741.0,744.0
743.0,741.0,741.0,741.0
742.0,740.0,741.0,740.0
739.0,738.0,741.0,736.0
739.0,738.0,744.0,735.0
737.0,735.0,744.0,733.0
737.0,735.0,745.0,733.0
739.0,737.0,747.0,738.0
744.0,741.0,743.0,741.0
744.0,743.0,749.0,747.0
747.0,745.0,751.0,756.0
750.0,744.0,755.0,760.0
752.0,744.0,756.0,758.0
753.0,746.0,755.0,758.0
750.0,745.0,753.0,755.0
749.0,744.0,751.0,753.0
746.0,744.0,748.0,749.0
744.0,745.0,746.0,747.0
741.0,742.0,745.0,743.0
740.0,744.0,742.0,740.0
738.0,742.0,740.0,738.0
737.0,738.0,740.0,736.0
736.0,737.0,739.0,736.0
736.0,738.0,740.0,737.0
739.0,742.0,742.0,740.0
742.0,745.0,745.0,743.0
748.0,749.0,748.0,747.0
750.0,750.0,750.0,749.0
753.0,753.0,754.0,753.0
754.0,753.0,754.0,754.0
752.0,751.0,755.0,754.0
752.0,750.0,753.0,753.0
749.0,750.0,751.0,750.0
747.0,747.0,748.0,747.0
744.0,744.0,746.0,744.0
742.0,741.0,744.0,742.0
740.0,740.0,741.0,735.0
738.0,739.0,741.0,732.0
738.0,738.0,738.0,729.0
737.0,736.0,738.0,729.0
739.0,738.0,739.0,733.0
743.0,742.0,741.0,739.0
747.0,744.0,743.0,745.0
750.0,746.0,745.0,752.0
753.0,746.0,747.0,754.0
754.0,750.0,750.0,754.0
754.0,751.0,752.0,755.0
750.0,749.0,752.0,753.0
747.0,748.0,752.0,751.0
746.0,745.0,750.0,749.0
744.0,744.0,748.0,747.0
742.0,744.0,747.0,744.0
742.0,744.0,745.0,744.0
739.0,740.0,743.0,741.0
738.0,739.0,741.0,737.0
738.0,738.0,738.0,736.0
738.0,738.0,738.0,737.0
740.0,741.0,741.0,740.0
743.0,743.0,744.0,742.0
746.0,745.0,747.0,745.0
748.0,747.0,750.0,748.0
752.0,748.0,753.0,752.0
753.0,748.0,755.0,754.0
753.0,747.0,755.0,755.0
752.0,745.0,753.0,753.0
749.0,743.0,751.0,750.0
747.0,742.0,751.0,747.0
745.0,743.0,747.0,745.0
744.0,742.0,744.0,743.0
741.0,742.0,742.0,739.0
742.0,742.0,741.0,730.0
742.0,741.0,738.0,727.0
742.0,741.0,738.0,727.0
743.0,741.0,740.0,730.0
744.0,744.0,743.0,735.0
747.0,745.0,745.0,738.0
747.0,747.0,747.0,742.0
749.0,748.0,749.0,751.0
750.0,749.0,751.0,758.0
750.0,749.0,751.0,757.0
750.0,748.0,752.0,755.0
748.0,748.0,750.0,752.0
747.0,745.0,749.0,749.0
745.0,744.0,746.0,748.0
744.0,743.0,746.0,745.0
744.0,742.0,743.0,744.0
742.0,741.0,741.0,740.0
741.0,741.0,740.0,740.0
741.0,740.0,738.0,738.0
741.0,740.0,738.0,738.0
743.0,742.0,740.0,740.0
745.0,745.0,743.0,743.0
747.0,745.0,745.0,744.0
748.0,748.0,749.0,746.0
750.0,748.0,749.0,748.0
750.0,749.0,751.0,749.0
750.0,749.0,751.0,751.0
747.0,748.0,750.0,749.0
746.0,747.0,749.0,749.0
745.0,746.0,748.0,747.0
744.0,744.0,746.0,744.0
741.0,744.0,743.0,741.0
742.0,742.0,741.0,739.0
742.0,741.0,738.0,735.0
744.0,741.0,736.0,733.0
744.0,740.0,735.0,731.0
743.0,741.0,734.0,731.0
745.0,743.0,737.0,732.0
746.0,745.0,740.0,734.0
747.0,746.0,743.0,733.0
750.0,747.0,746.0,736.0
750.0,749.0,750.0,747.0
749.0,749.0,752.0,754.0
749.0,748.0,753.0,756.0
748.0,748.0,752.0,753.0
747.0,746.0,752.0,748.0
746.0,745.0,749.0,745.0
745.0,744.0,747.0,744.0
745.0,743.0,744.0,744.0
743.0,742.0,743.0,741.0
743.0,741.0,741.0,740.0
743.0,740.0,738.0,739.0
742.0,740.0,737.0,741.0
744.0,741.0,736.0,744.0
744.0,743.0,739.0,747.0
744.0,745.0,744.0,748.0
747.0,746.0,749.0,749.0
748.0,747.0,751.0,749.0
750.0,749.0,752.0,751.0
750.0,749.0,752.0,750.0
751.0,748.0,752.0,750.0
748.0,747.0,750.0,749.0
747.0,746.0,749.0,748.0
746.0,744.0,747.0,746.0
744.0,743.0,745.0,743.0
746.0,742.0,742.0,738.0
746.0,741.0,741.0,733.0
746.0,741.0,740.0,730.0
745.0,740.0,739.0,727.0
745.0,741.0,739.0,727.0
746.0,741.0,742.0,731.0
747.0,745.0,744.0,736.0
746.0,744.0,746.0,742.0
745.0,747.0,748.0,747.0
747.0,748.0,750.0,752.0
747.0,748.0,751.0,756.0
749.0,749.0,751.0,756.0
748.0,748.0,751.0,751.0
748.0,746.0,748.0,750.0
746.0,745.0,745.0,746.0
745.0,744.0,744.0,744.0
743.0,743.0,741.0,744.0
743.0,740.0,741.0,743.0
742.0,741.0,739.0,741.0
741.0,740.0,737.0,740.0
741.0,740.0,737.0,739.0
741.0,742.0,738.0,739.0
743.0,743.0,740.0,741.0
746.0,745.0,743.0,746.0
746.0,746.0,746.0,747.0
748.0,748.0,749.0,750.0
749.0,749.0,751.0,752.0
750.0,749.0,751.0,752.0
750.0,748.0,753.0,752.0
746.0,747.0,752.0,749.0
746.0,746.0,751.0,746.0
744.0,745.0,747.0,746.0
742.0,743.0,743.0,744.0
741.0,743.0,741.0,742.0
741.0,740.0,739.0,739.0
742.0,742.0,738.0,738.0
744.0,740.0,737.0,737.0
744.0,740.0,739.0,736.0
744.0,741.0,739.0,736.0
745.0,744.0,741.0,739.0
746.0,745.0,744.0,744.0
749.0,747.0,747.0,748.0
749.0,748.0,748.0,750.0
749.0,749.0,749.0,749.0
749.0,749.0,749.0,749.0
749.0,748.0,749.0,748.0
747.0,747.0,747.0,747.0
745.0,746.0,746.0,745.0
745.0,744.0,745.0,743.0
743.0,744.0,745.0,737.0
744.0,742.0,743.0,734.0
742.0,741.0,741.0,729.0
741.0,742.0,739.0,725.0
742.0,740.0,738.0,722.0
742.0,741.0,738.0,722.0
743.0,742.0,740.0,723.0
745.0,744.0,743.0,733.0
746.0,745.0,747.0,743.0
748.0,747.0,749.0,755.0
750.0,749.0,753.0,761.0
749.0,749.0,754.0,757.0
750.0,749.0,754.0,753.0
748.0,748.0,753.0,749.0
749.0,747.0,750.0,748.0
746.0,745.0,746.0,747.0
745.0,744.0,745.0,745.0
744.0,743.0,742.0,747.0
743.0,742.0,742.0,748.0
742.0,742.0,739.0,747.0
742.0,740.0,737.0,745.0
741.0,741.0,737.0,743.0
742.0,741.0,739.0,742.0
743.0,743.0,741.0,742.0
745.0,744.0,744.0,744.0
747.0,747.0,746.0,746.0
748.0,747.0,749.0,746.0
750.0,749.0,752.0,750.0
750.0,749.0,752.0,750.0
749.0,749.0,752.0,748.0
748.0,748.0,751.0,746.0
747.0,747.0,749.0,744.0
745.0,744.0,747.0,742.0
745.0,744.0,744.0,742.0
744.0,742.0,743.0,743.0
742.0,742.0,741.0,741.0
742.0,741.0,742.0,738.0
741.0,740.0,740.0,734.0
742.0,741.0,738.0,734.0
742.0,742.0,738.0,737.0
745.0,743.0,742.0,741.0
745.0,745.0,744.0,744.0
747.0,746.0,747.0,747.0
749.0,749.0,748.0,750.0
750.0,749.0,751.0,751.0
749.0,749.0,751.0,751.0
749.0,748.0,750.0,750.0
747.0,747.0,749.0,748.0
747.0,744.0,748.0,746.0
746.0,744.0,746.0,744.0
744.0,743.0,744.0,743.0
744.0,742.0,742.0,744.0
742.0,740.0,740.0,742.0
741.0,741.0,740.0,740.0
742.0,740.0,739.0,737.0
742.0,740.0,739.0,734.0
744.0,742.0,741.0,734.0
746.0,742.0,744.0,736.0
746.0,745.0,747.0,742.0
747.0,747.0,749.0,745.0
750.0,749.0,751.0,745.0
750.0,749.0,752.0,746.0
750.0,750.0,752.0,749.0
748.0,747.0,750.0,749.0
747.0,746.0,749.0,751.0
745.0,745.0,746.0,745.0
745.0,744.0,745.0,741.0
743.0,743.0,743.0,735.0
743.0,741.0,742.0,734.0
742.0,741.0,740.0,734.0
742.0,741.0,736.0,737.0
742.0,741.0,738.0,744.0
742.0,741.0,739.0,748.0
743.0,743.0,742.0,747.0
745.0,744.0,744.0,745.0
747.0,746.0,747.0,743.0
749.0,747.0,748.0,742.0
750.0,749.0,752.0,744.0
750.0,749.0,752.0,745.0
750.0,748.0,751.0,747.0
748.0,747.0,750.0,749.0
747.0,746.0,747.0,754.0
745.0,745.0,745.0,753.0
745.0,743.0,746.0,749.0
743.0,743.0,743.0,745.0
741.0,741.0,741.0,743.0
741.0,740.0,740.0,743.0
742.0,740.0,738.0,741.0
742.0,740.0,738.0,739.0
743.0,742.0,739.0,739.0
745.0,744.0,744.0,741.0
746.0,745.0,746.0,743.0
748.0,747.0,748.0,746.0
749.0,748.0,749.0,749.0
750.0,749.0,752.0,752.0
749.0,750.0,752.0,752.0
748.0,748.0,752.0,751.0
747.0,747.0,749.0,749.0
746.0,745.0,748.0,747.0
745.0,744.0,746.0,744.0
743.0,742.0,745.0,740.0
743.0,742.0,743.0,739.0
742.0,741.0,740.0,735.0
742.0,741.0,739.0,735.0
742.0,740.0,738.0,736.0
742.0,740.0,738.0,735.0
744.0,742.0,740.0,739.0
745.0,745.0,745.0,742.0
746.0,745.0,746.0,743.0
749.0,747.0,748.0,746.0
750.0,749.0,751.0,748.0
749.0,749.0,751.0,749.0
751.0,749.0,752.0,750.0
748.0,747.0,752.0,749.0
747.0,746.0,750.0,748.0
745.0,744.0,749.0,745.0
745.0,742.0,746.0,745.0
743.0,743.0,744.0,739.0
743.0,742.0,742.0,735.0
743.0,741.0,742.0,734.0
741.0,740.0,739.0,733.0
741.0,741.0,737.0,733.0
743.0,742.0,736.0,733.0
745.0,744.0,739.0,737.0
746.0,745.0,742.0,744.0
748.0,747.0,746.0,750.0
748.0,748.0,747.0,751.0
750.0,749.0,749.0,753.0
750.0,748.0,752.0,751.0
750.0,749.0,753.0,750.0
749.0,747.0,753.0,749.0
747.0,745.0,751.0,748.0
745.0,744.0,746.0,745.0
746.0,743.0,745.0,743.0
744.0,743.0,742.0,742.0
742.0,741.0,741.0,739.0
742.0,741.0,741.0,738.0
742.0,740.0,738.0,736.0
742.0,741.0,738.0,736.0
742.0,742.0,740.0,738.0
744.0,744.0,744.0,738.0
746.0,745.0,745.0,738.0
748.0,747.0,748.0,740.0
749.0,748.0,750.0,745.0
749.0,749.0,751.0,748.0
749.0,749.0,752.0,750.0
749.0,748.0,751.0,749.0
748.0,747.0,749.0,750.0
746.0,745.0,747.0,749.0
745.0,744.0,745.0,747.0
743.0,743.0,744.0,741.0
743.0,742.0,744.0,741.0
742.0,741.0,742.0,738.0
741.0,741.0,741.0,736.0
742.0,740.0,739.0,735.0
741.0,741.0,739.0,737.0
743.0,743.0,741.0,741.0
745.0,745.0,745.0,741.0
747.0,745.0,747.0,742.0
748.0,748.0,749.0,744.0
750.0,749.0,752.0,746.0
750.0,749.0,751.0,748.0
750.0,750.0,751.0,748.0
749.0,748.0,750.0,747.0
747.0,746.0,748.0,747.0
744.0,745.0,746.0,743.0
743.0,744.0,745.0,740.0
741.0,743.0,744.0,735.0
741.0,742.0,741.0,735.0
740.0,740.0,740.0,735.0
740.0,741.0,739.0,739.0
743.0,741.0,739.0,742.0
743.0,741.0,739.0,743.0
745.0,743.0,742.0,745.0
746.0,745.0,743.0,748.0
748.0,746.0,746.0,751.0
749.0,748.0,746.0,753.0
750.0,749.0,749.0,756.0
750.0,749.0,748.0,755.0
750.0,749.0,750.0,753.0
748.0,747.0,750.0,750.0
747.0,745.0,748.0,748.0
745.0,745.0,746.0,745.0
745.0,743.0,746.0,742.0
744.0,744.0,742.0,737.0
742.0,741.0,740.0,737.0
742.0,741.0,741.0,737.0
741.0,741.0,739.0,734.0
742.0,741.0,740.0,733.0
743.0,742.0,741.0,737.0
746.0,745.0,744.0,743.0
747.0,745.0,745.0,745.0
748.0,747.0,748.0,746.0
749.0,749.0,751.0,749.0
750.0,749.0,751.0,750.0
749.0,749.0,753.0,751.0
749.0,748.0,751.0,749.0
748.0,747.0,750.0,747.0
746.0,745.0,748.0,745.0
745.0,744.0,745.0,744.0
744.0,742.0,744.0,742.0
743.0,742.0,743.0,740.0
742.0,740.0,742.0,736.0
741.0,740.0,741.0,734.0
741.0,740.0,740.0,733.0
742.0,740.0,741.0,732.0
744.0,743.0,742.0,734.0
745.0,745.0,744.0,738.0
748.0,746.0,746.0,742.0
748.0,748.0,747.0,744.0
750.0,749.0,750.0,749.0
750.0,749.0,749.0,751.0
749.0,749.0,749.0,757.0
749.0,747.0,748.0,759.0
747.0,746.0,748.0,756.0
745.0,744.0,747.0,748.0
744.0,744.0,744.0,743.0
743.0,743.0,743.0,738.0
741.0,742.0,739.0,736.0
742.0,742.0,738.0,735.0
741.0,741.0,736.0,732.0
743.0,741.0,738.0,734.0
743.0,741.0,741.0,737.0
746.0,743.0,744.0,743.0
746.0,745.0,745.0,744.0
748.0,746.0,747.0,747.0
749.0,748.0,750.0,749.0
750.0,749.0,752.0,751.0
750.0,749.0,753.0,752.0
749.0,748.0,752.0,753.0
747.0,747.0,752.0,752.0
747.0,746.0,749.0,749.0
745.0,745.0,747.0,746.0
745.0,743.0,745.0,744.0
742.0,743.0,743.0,740.0
742.0,742.0,740.0,736.0
742.0,741.0,740.0,737.0
741.0,741.0,738.0,736.0
742.0,741.0,737.0,735.0
744.0,744.0,740.0,736.0
745.0,745.0,745.0,738.0
746.0,745.0,746.0,740.0
748.0,747.0,750.0,742.0
750.0,748.0,752.0,745.0
750.0,749.0,753.0,746.0
750.0,749.0,754.0,748.0
749.0,748.0,751.0,749.0
748.0,747.0,749.0,748.0
746.0,745.0,747.0,750.0
745.0,745.0,745.0,749.0
744.0,742.0,744.0,743.0
744.0,742.0,741.0,739.0
742.0,741.0,740.0,735.0
741.0,741.0,738.0,733.0
742.0,741.0,739.0,735.0
742.0,741.0,740.0,734.0
744.0,743.0,743.0,733.0
745.0,745.0,744.0,737.0
747.0,746.0,747.0,748.0
748.0,748.0,748.0,753.0
750.0,749.0,750.0,757.0
750.0,749.0,750.0,757.0
750.0,749.0,750.0,756.0
748.0,747.0,750.0,752.0
747.0,746.0,747.0,749.0
745.0,744.0,746.0,745.0
744.0,744.0,745.0,743.0
743.0,743.0,744.0,741.0
743.0,742.0,741.0,742.0
743.0,741.0,740.0,743.0
741.0,740.0,739.0,739.0
741.0,741.0,740.0,737.0
742.0,742.0,740.0,736.0
745.0,744.0,743.0,739.0
745.0,746.0,744.0,741.0
749.0,747.0,747.0,744.0
749.0,748.0,748.0,746.0
750.0,749.0,750.0,749.0
750.0,749.0,751.0,750.0
749.0,748.0,749.0,751.0
748.0,747.0,750.0,749.0
747.0,745.0,748.0,746.0
745.0,744.0,747.0,744.0
744.0,743.0,745.0,743.0
743.0,743.0,744.0,741.0
742.0,741.0,741.0,740.0
742.0,741.0,741.0,740.0
742.0,741.0,738.0,739.0
742.0,741.0,738.0,739.0
743.0,742.0,740.0,740.0
745.0,744.0,743.0,739.0
746.0,746.0,744.0,738.0
749.0,746.0,748.0,738.0
749.0,749.0,751.0,740.0
750.0,749.0,751.0,740.0
749.0,750.0,752.0,742.0
749.0,748.0,750.0,742.0
746.0,747.0,750.0,743.0
745.0,745.0,747.0,743.0
743.0,744.0,745.0,744.0
742.0,741.0,742.0,745.0
741.0,742.0,740.0,746.0
740.0,742.0,739.0,745.0
741.0,741.0,739.0,744.0
743.0,741.0,739.0,742.0
744.0,741.0,740.0,739.0
746.0,743.0,742.0,743.0
745.0,744.0,744.0,743.0
748.0,747.0,746.0,747.0
748.0,748.0,749.0,748.0
750.0,749.0,751.0,749.0
750.0,749.0,751.0,748.0
749.0,749.0,751.0,746.0
749.0,747.0,750.0,743.0
747.0,747.0,749.0,741.0
745.0,744.0,745.0,738.0
744.0,744.0,748.0,735.0
744.0,743.0,745.0,734.0
743.0,742.0,741.0,733.0
744.0,742.0,738.0,734.0
742.0,741.0,738.0,734.0
741.0,741.0,738.0,736.0
742.0,742.0,740.0,737.0
746.0,745.0,742.0,747.0
746.0,745.0,743.0,753.0
749.0,747.0,746.0,758.0
749.0,747.0,750.0,757.0
750.0,749.0,750.0,756.0
751.0,748.0,750.0,757.0
748.0,748.0,750.0,756.0
747.0,747.0,750.0,752.0
747.0,746.0,748.0,745.0
745.0,744.0,746.0,742.0
743.0,743.0,743.0,737.0
743.0,743.0,743.0,735.0
742.0,742.0,740.0,730.0
742.0,741.0,737.0,727.0
742.0,741.0,735.0,729.0
742.0,741.0,734.0,734.0
744.0,743.0,737.0,738.0
746.0,744.0,740.0,740.0
746.0,747.0,741.0,739.0
749.0,747.0,745.0,747.0
751.0,749.0,749.0,757.0
750.0,750.0,753.0,755.0
749.0,749.0,759.0,751.0
748.0,748.0,757.0,743.0
747.0,747.0,755.0,742.0
746.0,745.0,750.0,742.0
745.0,744.0,748.0,744.0
744.0,744.0,744.0,742.0
743.0,742.0,742.0,741.0
743.0,742.0,742.0,736.0
742.0,741.0,742.0,735.0
742.0,741.0,741.0,741.0
746.0,741.0,739.0,747.0
748.0,744.0,738.0,754.0
748.0,745.0,739.0,754.0
750.0,747.0,742.0,750.0
750.0,748.0,746.0,741.0
751.0,750.0,751.0,739.0
749.0,750.0,749.0,739.0
747.0,749.0,749.0,740.0
747.0,748.0,750.0,743.0
746.0,746.0,751.0,739.0
746.0,745.0,751.0,736.0
744.0,744.0,747.0,745.0
744.0,743.0,743.0,753.0
742.0,741.0,739.0,754.0
742.0,742.0,740.0,751.0
741.0,740.0,740.0,745.0
741.0,740.0,738.0,740.0
743.0,742.0,739.0,740.0
745.0,745.0,741.0,745.0
745.0,744.0,744.0,751.0
747.0,747.0,748.0,754.0
749.0,749.0,752.0,752.0
749.0,749.0,753.0,749.0
751.0,749.0,751.0,750.0
749.0,748.0,750.0,747.0
748.0,746.0,750.0,744.0
747.0,746.0,750.0,733.0
746.0,744.0,752.0,728.0
743.0,744.0,750.0,731.0
744.0,743.0,747.0,732.0
742.0,742.0,745.0,723.0
742.0,742.0,743.0,718.0
742.0,741.0,742.0,714.0
743.0,742.0,738.0,718.0
745.0,744.0,739.0,718.0
747.0,746.0,744.0,718.0
747.0,746.0,748.0,723.0
750.0,747.0,749.0,745.0
751.0,750.0,751.0,769.0
750.0,750.0,748.0,779.0
750.0,750.0,746.0,774.0
748.0,747.0,741.0,765.0
746.0,746.0,737.0,754.0
746.0,745.0,729.0,740.0
746.0,744.0,732.0,729.0
745.0,744.0,739.0,721.0
744.0,741.0,743.0,716.0
745.0,742.0,742.0,706.0
744.0,742.0,736.0,708.0
745.0,742.0,733.0,715.0
745.0,741.0,730.0,738.0
746.0,745.0,731.0,765.0
747.0,745.0,733.0,778.0
747.0,748.0,737.0,777.0
748.0,748.0,742.0,776.0
748.0,749.0,749.0,776.0
749.0,749.0,752.0,767.0
746.0,747.0,756.0,754.0
745.0,745.0,758.0,751.0
744.0,744.0,758.0,740.0
744.0,743.0,755.0,738.0
742.0,742.0,752.0,737.0
742.0,742.0,752.0,731.0
740.0,741.0,749.0,727.0
742.0,741.0,747.0,727.0
742.0,741.0,745.0,733.0
741.0,740.0,743.0,742.0
743.0,742.0,744.0,749.0
745.0,744.0,742.0,755.0
746.0,744.0,744.0,752.0
749.0,748.0,745.0,748.0
749.0,749.0,747.0,739.0
750.0,749.0,745.0,734.0
751.0,749.0,745.0,734.0
750.0,749.0,742.0,729.0
750.0,748.0,741.0,727.0
748.0,747.0,739.0,732.0
747.0,745.0,735.0,747.0
746.0,743.0,731.0,760.0
743.0,743.0,736.0,753.0
742.0,741.0,735.0,741.0
742.0,741.0,732.0,736.0
743.0,742.0,728.0,729.0
744.0,742.0,730.0,714.0
745.0,745.0,740.0,709.0
747.0,745.0,748.0,717.0
749.0,745.0,753.0,725.0
749.0,749.0,755.0,737.0
750.0,750.0,754.0,758.0
750.0,750.0,748.0,773.0
750.0,749.0,749.0,776.0
748.0,749.0,751.0,769.0
748.0,747.0,750.0,764.0
746.0,745.0,750.0,749.0
744.0,744.0,747.0,739.0
742.0,741.0,747.0,729.0
740.0,741.0,743.0,730.0
740.0,741.0,740.0,745.0
738.0,739.0,739.0,753.0
739.0,741.0,738.0,755.0
739.0,740.0,742.0,753.0
743.0,743.0,744.0,757.0
745.0,745.0,743.0,759.0
749.0,746.0,744.0,758.0
750.0,748.0,743.0,754.0
751.0,749.0,742.0,750.0
750.0,749.0,737.0,745.0
749.0,749.0,736.0,737.0
748.0,748.0,737.0,733.0
749.0,747.0,737.0,730.0
746.0,746.0,740.0,716.0
746.0,744.0,744.0,717.0
744.0,744.0,747.0,732.0
743.0,741.0,751.0,737.0
740.0,740.0,759.0,732.0
740.0,740.0,760.0,730.0
741.0,740.0,755.0,742.0
743.0,742.0,744.0,753.0
745.0,744.0,738.0,757.0
746.0,745.0,735.0,756.0
748.0,748.0,740.0,748.0
751.0,749.0,745.0,733.0
752.0,750.0,749.0,722.0
753.0,751.0,751.0,725.0
752.0,750.0,750.0,734.0
751.0,750.0,746.0,743.0
751.0,748.0,742.0,735.0
749.0,747.0,727.0,737.0
747.0,744.0,712.0,739.0
745.0,744.0,706.0,721.0
744.0,743.0,714.0,706.0
743.0,741.0,724.0,711.0
741.0,741.0,729.0,747.0
740.0,740.0,729.0,773.0
741.0,742.0,735.0,777.0
742.0,743.0,746.0,763.0
745.0,745.0,751.0,754.0
746.0,746.0,753.0,743.0
749.0,749.0,752.0,745.0
750.0,749.0,749.0,750.0
749.0,749.0,750.0,751.0
750.0,748.0,751.0,756.0
748.0,747.0,759.0,762.0
745.0,744.0,760.0,765.0
745.0,745.0,752.0,766.0
743.0,742.0,746.0,761.0
742.0,741.0,743.0,754.0
742.0,742.0,744.0,748.0
740.0,741.0,744.0,739.0
741.0,742.0,741.0,723.0
743.0,742.0,737.0,713.0
745.0,742.0,741.0,714.0
746.0,743.0,740.0,721.0
750.0,744.0,738.0,722.0
750.0,744.0,737.0,725.0
751.0,745.0,744.0,733.0
751.0,745.0,751.0,737.0
748.0,746.0,752.0,729.0
747.0,746.0,745.0,728.0
745.0,747.0,738.0,741.0
742.0,744.0,740.0,756.0
742.0,744.0,746.0,772.0
740.0,745.0,743.0,783.0
740.0,744.0,736.0,769.0
744.0,744.0,735.0,746.0
743.0,744.0,732.0,737.0
743.0,743.0,735.0,743.0
745.0,743.0,737.0,751.0
746.0,744.0,739.0,749.0
745.0,746.0,745.0,720.0
748.0,748.0,742.0,713.0
751.0,750.0,735.0,713.0
752.0,750.0,733.0,713.0
753.0,751.0,734.0,724.0
750.0,750.0,728.0,741.0
749.0,748.0,729.0,767.0
746.0,746.0,750.0,764.0
744.0,744.0,778.0,751.0
743.0,743.0,777.0,728.0
743.0,742.0,759.0,713.0
744.0,742.0,744.0,723.0
743.0,742.0,738.0,735.0
742.0,742.0,732.0,764.0
743.0,742.0,725.0,791.0
746.0,744.0,732.0,790.0
750.0,744.0,745.0,766.0
752.0,746.0,746.0,754.0
753.0,746.0,736.0,754.0
756.0,748.0,735.0,749.0
758.0,749.0,736.0,748.0
753.0,748.0,741.0,752.0
743.0,747.0,745.0,748.0
737.0,746.0,748.0,742.0
738.0,745.0,749.0,728.0
740.0,744.0,743.0,723.0
741.0,743.0,740.0,723.0
741.0,742.0,733.0,722.0
743.0,743.0,729.0,734.0
743.0,744.0,735.0,742.0
742.0,744.0,758.0,741.0
742.0,746.0,777.0,743.0
746.0,749.0,775.0,739.0
748.0,750.0,761.0,734.0
750.0,752.0,748.0,743.0
751.0,750.0,737.0,760.0
750.0,749.0,731.0,754.0
749.0,748.0,737.0,734.0
748.0,746.0,746.0,734.0
746.0,746.0,753.0,745.0
745.0,745.0,756.0,744.0
744.0,744.0,749.0,745.0
743.0,744.0,742.0,755.0
744.0,743.0,742.0,770.0
741.0,743.0,746.0,763.0
740.0,742.0,752.0,750.0
741.0,741.0,753.0,719.0
741.0,742.0,740.0,700.0
745.0,744.0,725.0,698.0
747.0,745.0,710.0,705.0
750.0,749.0,704.0,706.0
754.0,751.0,701.0,694.0
754.0,751.0,696.0,705.0
753.0,752.0,698.0,727.0
753.0,750.0,723.0,754.0
749.0,749.0,770.0,781.0
746.0,747.0,784.0,806.0
744.0,745.0,777.0,804.0
742.0,743.0,776.0,786.0
740.0,742.0,760.0,770.0
739.0,740.0,743.0,775.0
739.0,740.0,723.0,759.0
739.0,740.0,716.0,735.0
740.0,740.0,722.0,731.0
741.0,741.0,736.0,738.0
743.0,745.0,745.0,741.0
743.0,745.0,751.0,748.0
746.0,748.0,770.0,759.0
747.0,747.0,785.0,766.0
750.0,749.0,778.0,764.0
749.0,750.0,763.0,758.0
749.0,748.0,752.0,751.0
749.0,748.0,752.0,730.0
749.0,747.0,748.0,720.0
748.0,747.0,745.0,702.0
748.0,745.0,748.0,691.0
748.0,745.0,744.0,712.0
745.0,744.0,728.0,743.0
745.0,745.0,694.0,733.0
747.0,745.0,679.0,729.0
745.0,745.0,686.0,743.0
746.0,743.0,708.0,730.0
747.0,747.0,725.0,725.0
747.0,746.0,732.0,718.0
748.0,748.0,736.0,713.0
749.0,749.0,737.0,730.0
749.0,749.0,744.0,728.0
749.0,748.0,748.0,729.0
747.0,746.0,760.0,734.0
747.0,746.0,777.0,759.0
745.0,745.0,772.0,775.0
745.0,745.0,766.0,773.0
742.0,743.0,768.0,785.0
740.0,742.0,769.0,781.0
739.0,741.0,756.0,763.0
739.0,741.0,739.0,753.0
740.0,740.0,741.0,740.0
740.0,742.0,741.0,729.0
745.0,744.0,737.0,742.0
747.0,746.0,737.0,768.0
748.0,747.0,741.0,775.0
750.0,749.0,733.0,755.0
752.0,751.0,731.0,741.0
751.0,751.0,724.0,744.0
751.0,750.0,728.0,758.0
748.0,748.0,737.0,767.0
745.0,746.0,759.0,764.0
743.0,745.0,790.0,758.0
741.0,743.0,786.0,743.0
739.0,742.0,766.0,730.0
739.0,741.0,745.0,729.0
740.0,741.0,731.0,730.0
741.0,741.0,725.0,724.0
743.0,742.0,735.0,717.0
745.0,745.0,751.0,716.0
747.0,748.0,755.0,715.0
748.0,749.0,744.0,718.0
750.0,750.0,739.0,723.0
752.0,750.0,723.0,735.0
751.0,750.0,717.0,747.0
750.0,749.0,725.0,744.0
750.0,747.0,752.0,720.0
748.0,747.0,771.0,712.0
747.0,746.0,767.0,741.0
745.0,745.0,741.0,769.0
744.0,743.0,723.0,761.0
744.0,742.0,709.0,765.0
742.0,742.0,714.0,758.0
741.0,741.0,767.0,744.0
741.0,743.0,784.0,755.0
741.0,744.0,767.0,764.0
742.0,745.0,743.0,760.0
743.0,747.0,730.0,761.0
745.0,747.0,730.0,764.0
746.0,749.0,732.0,763.0
748.0,749.0,742.0,753.0
748.0,750.0,741.0,748.0
748.0,749.0,731.0,747.0
747.0,748.0,735.0,738.0
747.0,749.0,743.0,716.0
745.0,746.0,753.0,679.0
746.0,746.0,762.0,677.0
745.0,745.0,777.0,697.0
746.0,743.0,788.0,738.0
746.0,743.0,763.0,797.0
743.0,742.0,739.0,809.0
741.0,741.0,735.0,788.0
738.0,740.0,730.0,763.0
740.0,741.0,735.0,745.0
744.0,744.0,738.0,737.0
745.0,746.0,747.0,744.0
747.0,747.0,755.0,751.0
748.0,748.0,764.0,748.0
748.0,748.0,764.0,749.0
750.0,749.0,752.0,751.0
750.0,749.0,737.0,735.0
750.0,748.0,737.0,715.0
749.0,747.0,732.0,709.0
748.0,746.0,731.0,712.0
745.0,744.0,739.0,718.0
744.0,743.0,735.0,753.0
743.0,743.0,734.0,741.0
742.0,741.0,735.0,714.0
741.0,741.0,738.0,705.0
742.0,743.0,731.0,730.0
744.0,745.0,722.0,737.0
746.0,746.0,724.0,747.0
748.0,750.0,722.0,778.0
749.0,750.0,718.0,781.0
751.0,751.0,713.0,745.0
753.0,752.0,719.0,731.0
751.0,750.0,743.0,738.0
750.0,748.0,809.0,725.0
749.0,747.0,826.0,711.0
748.0,745.0,791.0,703.0
745.0,745.0,744.0,712.0
744.0,744.0,722.0,770.0
741.0,741.0,728.0,803.0
739.0,740.0,748.0,791.0
737.0,740.0,753.0,749.0
739.0,740.0,750.0,728.0
741.0,742.0,753.0,724.0
744.0,744.0,749.0,733.0
744.0,745.0,736.0,751.0
745.0,745.0,745.0,764.0
747.0,748.0,752.0,759.0
748.0,749.0,749.0,761.0
749.0,749.0,738.0,762.0
748.0,747.0,733.0,769.0
748.0,748.0,730.0,762.0
748.0,747.0,733.0,736.0
746.0,746.0,751.0,694.0
747.0,745.0,748.0,675.0
745.0,744.0,743.0,682.0
746.0,744.0,723.0,696.0
746.0,743.0,699.0,733.0
746.0,744.0,702.0,768.0
747.0,745.0,712.0,761.0
748.0,747.0,738.0,733.0
747.0,747.0,752.0,712.0
750.0,748.0,761.0,721.0
749.0,750.0,770.0,720.0
750.0,749.0,794.0,749.0
750.0,749.0,780.0,757.0
748.0,749.0,760.0,764.0
747.0,747.0,778.0,763.0
744.0,745.0,796.0,765.0
741.0,743.0,789.0,758.0
740.0,743.0,762.0,734.0
740.0,742.0,725.0,733.0
740.0,741.0,710.0,734.0
740.0,741.0,710.0,730.0
739.0,739.0,721.0,706.0
740.0,740.0,733.0,695.0
743.0,742.0,747.0,732.0
747.0,745.0,747.0,773.0
749.0,747.0,726.0,754.0
753.0,750.0,706.0,761.0
753.0,752.0,704.0,791.0
752.0,751.0,734.0,763.0
752.0,751.0,774.0,731.0
750.0,749.0,786.0,698.0
749.0,748.0,759.0,691.0
748.0,747.0,721.0,737.0
746.0,745.0,706.0,759.0
745.0,744.0,698.0,728.0
744.0,743.0,741.0,717.0
744.0,742.0,783.0,706.0
742.0,741.0,804.0,712.0
740.0,740.0,795.0,697.0
740.0,740.0,766.0,708.0
741.0,742.0,745.0,752.0
741.0,743.0,729.0,780.0
743.0,745.0,732.0,791.0
746.0,747.0,735.0,785.0
750.0,750.0,734.0,801.0
749.0,750.0,737.0,799.0
749.0,751.0,771.0,790.0
748.0,749.0,795.0,778.0
746.0,747.0,791.0,754.0
747.0,746.0,747.0,705.0
748.0,747.0,719.0,676.0
750.0,746.0,707.0,654.0
747.0,745.0,705.0,676.0
747.0,745.0,712.0,709.0
745.0,742.0,747.0,738.0
741.0,741.0,764.0,757.0
742.0,742.0,761.0,734.0
742.0,743.0,766.0,718.0
742.0,743.0,754.0,764.0
745.0,745.0,725.0,773.0
747.0,747.0,735.0,758.0
747.0,749.0,757.0,749.0
747.0,748.0,758.0,731.0
747.0,748.0,751.0,728.0
750.0,748.0,725.0,719.0
750.0,749.0,712.0,699.0
750.0,747.0,716.0,728.0
750.0,748.0,744.0,738.0
751.0,747.0,744.0,733.0
746.0,745.0,727.0,756.0
740.0,743.0,748.0,805.0
738.0,740.0,749.0,783.0
738.0,740.0,761.0,772.0
740.0,740.0,776.0,741.0
743.0,743.0,773.0,719.0
743.0,743.0,787.0,704.0
747.0,746.0,788.0,697.0
750.0,750.0,758.0,688.0
751.0,751.0,704.0,689.0
752.0,752.0,661.0,712.0
754.0,752.0,650.0,733.0
755.0,750.0,696.0,736.0
752.0,748.0,748.0,768.0
751.0,746.0,788.0,772.0
745.0,743.0,814.0,757.0
740.0,740.0,813.0,744.0
734.0,737.0,779.0,778.0
732.0,736.0,757.0,764.0
732.0,737.0,754.0,745.0
736.0,740.0,760.0,737.0
743.0,744.0,760.0,721.0
749.0,745.0,764.0,722.0
751.0,749.0,755.0,726.0
753.0,750.0,727.0,728.0
754.0,753.0,726.0,720.0
754.0,752.0,693.0,710.0
752.0,751.0,683.0,738.0
751.0,748.0,713.0,746.0
747.0,746.0,748.0,749.0
742.0,743.0,754.0,793.0
739.0,741.0,789.0,786.0
737.0,739.0,799.0,751.0
735.0,738.0,782.0,727.0
737.0,738.0,765.0,712.0
737.0,737.0,745.0,698.0
739.0,740.0,720.0,687.0
742.0,741.0,700.0,684.0
746.0,744.0,700.0,670.0
750.0,747.0,727.0,666.0
755.0,751.0,742.0,682.0
758.0,752.0,747.0,719.0
760.0,756.0,745.0,760.0
759.0,755.0,764.0,820.0
754.0,752.0,760.0,867.0
748.0,749.0,753.0,859.0
742.0,744.0,761.0,786.0
740.0,742.0,737.0,719.0
738.0,741.0,729.0,687.0
740.0,741.0,735.0,694.0
739.0,739.0,761.0,700.0
741.0,741.0,776.0,712.0
743.0,741.0,774.0,672.0
744.0,744.0,745.0,628.0
745.0,744.0,716.0,688.0
745.0,745.0,701.0,762.0
745.0,745.0,706.0,770.0
749.0,748.0,749.0,746.0
751.0,749.0,802.0,710.0
751.0,749.0,788.0,729.0
749.0,749.0,767.0,772.0
745.0,746.0,767.0,779.0
743.0,744.0,772.0,778.0
742.0,743.0,774.0,764.0
744.0,743.0,752.0,738.0
746.0,744.0,703.0,705.0
752.0,745.0,686.0,669.0
752.0,744.0,716.0,677.0
752.0,745.0,736.0,710.0
750.0,744.0,758.0,749.0
745.0,742.0,757.0,755.0
744.0,743.0,734.0,772.0
742.0,743.0,725.0,807.0
740.0,744.0,717.0,764.0
737.0,743.0,757.0,719.0
739.0,746.0,792.0,720.0
740.0,744.0,821.0,727.0
745.0,745.0,824.0,707.0
747.0,748.0,796.0,680.0
750.0,747.0,750.0,679.0
750.0,747.0,707.0,695.0
750.0,747.0,707.0,715.0
749.0,746.0,708.0,755.0
746.0,744.0,729.0,802.0
745.0,743.0,746.0,816.0
742.0,741.0,738.0,801.0
738.0,739.0,723.0,788.0
735.0,737.0,750.0,744.0
738.0,741.0,766.0,684.0
742.0,744.0,756.0,682.0
748.0,748.0,762.0,671.0
752.0,749.0,779.0,676.0
757.0,752.0,793.0,689.0
760.0,754.0,749.0,669.0
760.0,753.0,714.0,668.0
754.0,751.0,700.0,786.0
745.0,745.0,710.0,894.0
740.0,741.0,735.0,841.0
736.0,739.0,766.0,750.0
736.0,737.0,775.0,685.0
738.0,738.0,747.0,679.0
742.0,741.0,739.0,686.0
745.0,742.0,724.0,676.0
745.0,743.0,732.0,652.0
748.0,745.0,771.0,673.0
751.0,747.0,777.0,652.0
752.0,748.0,791.0,661.0
754.0,749.0,769.0,746.0
754.0,750.0,708.0,798.0
752.0,749.0,664.0,834.0
752.0,749.0,692.0,814.0
745.0,745.0,748.0,785.0
743.0,743.0,801.0,774.0
742.0,743.0,833.0,727.0
745.0,743.0,816.0,691.0
743.0,743.0,801.0,672.0
744.0,743.0,774.0,685.0
744.0,743.0,700.0,684.0
743.0,742.0,607.0,709.0
743.0,742.0,572.0,719.0
744.0,742.0,595.0,771.0
744.0,743.0,709.0,779.0
742.0,744.0,866.0,754.0
746.0,745.0,871.0,728.0
748.0,746.0,828.0,718.0
750.0,749.0,797.0,709.0
748.0,747.0,769.0,695.0
746.0,745.0,779.0,716.0
746.0,746.0,750.0,786.0
748.0,746.0,735.0,748.0
751.0,748.0,748.0,688.0
751.0,746.0,762.0,633.0
748.0,744.0,767.0,683.0
742.0,740.0,758.0,789.0
738.0,740.0,727.0,803.0
737.0,738.0,723.0,770.0
735.0,737.0,726.0,748.0
736.0,739.0,741.0,736.0
736.0,740.0,779.0,737.0
739.0,741.0,785.0,732.0
746.0,746.0,742.0,714.0
750.0,749.0,746.0,701.0
754.0,751.0,771.0,675.0
760.0,754.0,773.0,665.0
761.0,754.0,719.0,708.0
760.0,753.0,679.0,686.0
756.0,751.0,652.0,736.0
749.0,746.0,689.0,789.0
741.0,742.0,769.0,772.0
738.0,739.0,814.0,763.0
735.0,737.0,805.0,753.0
732.0,736.0,796.0,749.0
734.0,735.0,790.0,722.0
734.0,736.0,775.0,711.0
736.0,739.0,744.0,718.0
741.0,741.0,735.0,725.0
745.0,744.0,705.0,715.0
750.0,749.0,702.0,702.0
756.0,751.0,717.0,674.0
761.0,754.0,708.0,649.0
767.0,755.0,716.0,642.0
766.0,755.0,740.0,677.0
762.0,752.0,721.0,801.0
752.0,747.0,719.0,861.0
739.0,741.0,790.0,806.0
732.0,737.0,833.0,735.0
730.0,735.0,824.0,707.0
733.0,735.0,813.0,705.0
736.0,737.0,805.0,710.0
738.0,738.0,804.0,714.0
741.0,739.0,784.0,701.0
743.0,743.0,708.0,705.0
744.0,744.0,662.0,726.0
746.0,746.0,660.0,729.0
750.0,748.0,708.0,700.0
756.0,752.0,756.0,733.0
757.0,753.0,787.0,731.0
755.0,752.0,812.0,724.0
749.0,747.0,802.0,785.0
742.0,742.0,785.0,807.0
739.0,740.0,779.0,726.0
740.0,742.0,769.0,666.0
742.0,740.0,756.0,644.0
743.0,740.0,734.0,675.0
744.0,740.0,719.0,748.0
741.0,739.0,703.0,735.0
738.0,739.0,714.0,699.0
739.0,740.0,720.0,697.0
744.0,742.0,730.0,716.0
746.0,745.0,743.0,765.0
750.0,747.0,736.0,769.0
752.0,750.0,745.0,725.0
751.0,749.0,744.0,717.0
748.0,747.0,732.0,770.0
746.0,746.0,711.0,789.0
744.0,744.0,742.0,767.0
743.0,742.0,775.0,726.0
743.0,742.0,777.0,702.0
746.0,741.0,790.0,686.0
749.0,744.0,770.0,687.0
747.0,743.0,765.0,699.0
743.0,740.0,776.0,696.0
739.0,739.0,775.0,687.0
744.0,742.0,750.0,654.0
751.0,746.0,702.0,700.0
752.0,748.0,697.0,715.0
753.0,748.0,704.0,696.0
750.0,748.0,727.0,740.0
747.0,748.0,770.0,786.0
747.0,747.0,776.0,783.0
744.0,747.0,801.0,744.0
740.0,742.0,812.0,731.0
739.0,741.0,801.0,741.0
738.0,739.0,769.0,754.0
743.0,741.0,748.0,710.0
747.0,743.0,746.0,649.0
753.0,745.0,733.0,607.0
758.0,747.0,691.0,628.0
757.0,748.0,666.0,724.0
754.0,744.0,681.0,753.0
750.0,744.0,721.0,731.0
748.0,744.0,754.0,762.0
744.0,743.0,772.0,757.0
739.0,741.0,809.0,795.0
736.0,741.0,824.0,785.0
740.0,743.0,785.0,732.0
740.0,743.0,732.0,726.0
741.0,742.0,715.0,733.0
742.0,743.0,712.0,717.0
744.0,743.0,731.0,710.0
744.0,743.0,781.0,693.0
745.0,743.0,818.0,679.0
747.0,743.0,797.0,679.0
746.0,740.0,770.0,704.0
747.0,743.0,754.0,748.0
748.0,743.0,768.0,735.0
751.0,744.0,803.0,687.0
752.0,745.0,805.0,672.0
752.0,749.0,750.0,744.0
752.0,749.0,669.0,788.0
747.0,744.0,666.0,726.0
738.0,741.0,722.0,716.0
734.0,740.0,773.0,768.0
740.0,743.0,776.0,757.0
742.0,744.0,745.0,722.0
745.0,745.0,740.0,692.0
745.0,744.0,705.0,665.0
748.0,743.0,692.0,647.0
744.0,742.0,711.0,686.0
743.0,741.0,722.0,746.0
740.0,740.0,748.0,748.0
739.0,740.0,775.0,748.0
739.0,739.0,791.0,753.0
741.0,739.0,808.0,752.0
742.0,740.0,810.0,735.0
742.0,741.0,789.0,714.0
743.0,743.0,773.0,719.0
748.0,745.0,761.0,725.0
753.0,750.0,761.0,685.0
757.0,751.0,731.0,621.0
758.0,752.0,729.0,603.0
754.0,750.0,733.0,675.0
749.0,746.0,754.0,789.0
744.0,744.0,780.0,821.0
745.0,743.0,741.0,711.0
747.0,744.0,707.0,690.0
746.0,742.0,686.0,724.0
740.0,739.0,711.0,740.0
735.0,735.0,752.0,757.0
734.0,734.0,789.0,731.0
738.0,738.0,774.0,726.0
743.0,741.0,747.0,755.0
744.0,742.0,752.0,732.0
746.0,745.0,795.0,669.0
751.0,748.0,791.0,665.0
755.0,752.0,751.0,688.0
756.0,752.0,734.0,717.0
753.0,749.0,704.0,743.0
750.0,746.0,721.0,669.0
751.0,746.0,778.0,622.0
749.0,744.0,806.0,682.0
750.0,743.0,812.0,725.0
748.0,743.0,803.0,780.0
745.0,742.0,756.0,811.0
740.0,739.0,732.0,744.0
735.0,738.0,701.0,662.0
735.0,737.0,712.0,637.0
737.0,739.0,717.0,692.0
740.0,740.0,724.0,767.0
740.0,739.0,753.0,784.0
742.0,742.0,768.0,759.0
743.0,745.0,768.0,737.0
745.0,745.0,741.0,735.0
745.0,747.0,745.0,730.0
746.0,746.0,753.0,693.0
747.0,746.0,764.0,679.0
750.0,745.0,781.0,707.0
750.0,744.0,784.0,736.0
748.0,742.0,800.0,711.0
749.0,745.0,775.0,652.0
750.0,745.0,706.0,637.0
751.0,743.0,667.0,648.0
747.0,742.0,671.0,667.0
745.0,740.0,689.0,754.0
743.0,741.0,720.0,794.0
742.0,740.0,762.0,771.0
741.0,741.0,818.0,705.0
742.0,741.0,894.0,687.0
747.0,744.0,893.0,682.0
751.0,747.0,851.0,701.0
751.0,748.0,814.0,714.0
748.0,746.0,771.0,709.0
748.0,745.0,761.0,701.0
749.0,744.0,727.0,693.0
748.0,744.0,722.0,690.0
746.0,741.0,723.0,710.0
742.0,738.0,755.0,724.0
740.0,738.0,767.0,712.0
742.0,739.0,748.0,731.0
738.0,737.0,778.0,741.0
739.0,738.0,778.0,711.0
743.0,743.0,754.0,680.0
743.0,745.0,726.0,681.0
747.0,748.0,693.0,699.0
747.0,749.0,699.0,727.0
748.0,749.0,734.0,729.0
747.0,749.0,771.0,734.0
747.0,748.0,773.0,760.0
749.0,746.0,754.0,699.0
748.0,745.0,737.0,621.0
747.0,744.0,727.0,611.0
742.0,740.0,746.0,715.0
739.0,740.0,726.0,829.0
739.0,740.0,691.0,796.0
742.0,741.0,707.0,734.0
746.0,741.0,720.0,670.0
746.0,740.0,757.0,629.0
746.0,741.0,777.0,677.0
742.0,741.0,779.0,713.0
739.0,740.0,757.0,736.0
743.0,742.0,714.0,732.0
746.0,744.0,675.0,731.0
748.0,745.0,697.0,690.0
755.0,748.0,776.0,665.0
757.0,749.0,822.0,645.0
759.0,749.0,801.0,666.0
757.0,749.0,753.0,694.0
754.0,745.0,734.0,696.0
745.0,742.0,775.0,675.0
741.0,740.0,814.0,678.0
740.0,739.0,787.0,736.0
735.0,737.0,749.0,804.0
729.0,733.0,769.0,807.0
731.0,733.0,782.0,728.0
737.0,737.0,750.0,695.0
742.0,740.0,695.0,712.0
745.0,743.0,686.0,693.0
750.0,744.0,762.0,641.0
755.0,749.0,814.0,587.0
756.0,750.0,800.0,601.0
753.0,750.0,755.0,687.0
748.0,747.0,726.0,869.0
742.0,742.0,765.0,857.0
737.0,739.0,745.0,774.0
739.0,739.0,736.0,728.0
742.0,740.0,750.0,726.0
741.0,740.0,741.0,737.0
742.0,741.0,746.0,717.0
746.0,741.0,732.0,637.0
747.0,744.0,704.0,553.0
750.0,745.0,672.0,542.0
754.0,748.0,680.0,604.0
754.0,747.0,724.0,738.0
753.0,748.0,777.0,779.0
752.0,746.0,818.0,714.0
750.0,745.0,791.0,774.0
746.0,744.0,742.0,846.0
740.0,742.0,736.0,838.0
737.0,741.0,751.0,710.0
737.0,739.0,720.0,682.0
740.0,739.0,705.0,674.0
737.0,737.0,729.0,681.0
738.0,737.0,763.0,696.0
738.0,737.0,775.0,684.0
739.0,739.0,772.0,638.0
743.0,740.0,766.0,600.0
745.0,741.0,743.0,591.0
747.0,743.0,728.0,691.0
749.0,745.0,715.0,776.0
750.0,746.0,715.0,786.0
751.0,747.0,804.0,716.0
753.0,748.0,869.0,684.0
753.0,748.0,883.0,706.0
750.0,746.0,873.0,712.0
744.0,743.0,849.0,734.0
743.0,743.0,768.0,733.0
743.0,742.0,705.0,697.0
745.0,744.0,664.0,668.0
745.0,744.0,645.0,669.0
745.0,741.0,682.0,700.0
741.0,739.0,713.0,724.0
736.0,737.0,721.0,730.0
735.0,735.0,724.0,736.0
738.0,737.0,731.0,729.0
741.0,739.0,730.0,700.0
743.0,742.0,717.0,686.0
745.0,745.0,706.0,685.0
744.0,743.0,716.0,682.0
743.0,744.0,738.0,707.0
744.0,745.0,780.0,714.0
747.0,745.0,793.0,711.0
746.0,745.0,776.0,704.0
746.0,744.0,767.0,688.0
744.0,742.0,753.0,695.0
744.0,740.0,748.0,717.0
743.0,739.0,742.0,720.0
741.0,738.0,737.0,706.0
742.0,738.0,734.0,707.0
739.0,738.0,724.0,695.0
739.0,739.0,701.0,692.0
745.0,742.0,698.0,700.0
746.0,744.0,711.0,733.0
744.0,744.0,761.0,715.0
744.0,745.0,801.0,692.0
745.0,745.0,808.0,685.0
748.0,745.0,805.0,666.0
750.0,745.0,793.0,664.0
749.0,745.0,783.0,670.0
748.0,744.0,783.0,661.0
746.0,744.0,774.0,670.0
745.0,744.0,739.0,704.0
745.0,741.0,729.0,718.0
743.0,742.0,740.0,745.0
740.0,739.0,749.0,738.0
739.0,738.0,754.0,723.0
739.0,737.0,738.0,704.0
740.0,738.0,701.0,679.0
743.0,740.0,673.0,673.0
743.0,742.0,682.0,688.0
745.0,742.0,731.0,705.0
747.0,744.0,798.0,716.0
750.0,747.0,789.0,696.0
750.0,745.0,761.0,672.0
748.0,745.0,764.0,674.0
746.0,744.0,765.0,661.0
745.0,745.0,762.0,656.0
743.0,744.0,748.0,660.0
740.0,742.0,746.0,677.0
739.0,739.0,748.0,688.0
739.0,737.0,743.0,721.0
740.0,738.0,737.0,707.0
740.0,737.0,749.0,648.0
745.0,738.0,746.0,595.0
748.0,739.0,732.0,610.0
749.0,741.0,720.0,670.0
747.0,742.0,730.0,736.0
745.0,742.0,743.0,793.0
743.0,743.0,753.0,739.0
748.0,745.0,757.0,721.0
751.0,746.0,755.0,730.0
749.0,745.0,771.0,729.0
745.0,743.0,791.0,722.0
743.0,743.0,791.0,703.0
742.0,742.0,773.0,662.0
741.0,740.0,754.0,658.0
741.0,740.0,743.0,677.0
741.0,738.0,747.0,698.0
739.0,737.0,750.0,698.0
737.0,737.0,741.0,684.0
738.0,737.0,732.0,680.0
739.0,739.0,727.0,682.0
741.0,739.0,731.0,692.0
743.0,740.0,742.0,692.0
745.0,743.0,758.0,684.0
747.0,746.0,767.0,683.0
749.0,749.0,766.0,688.0
751.0,750.0,764.0,695.0
753.0,751.0,762.0,703.0
754.0,750.0,761.0,706.0
752.0,745.0,754.0,702.0
752.0,742.0,751.0,698.0
752.0,739.0,745.0,683.0
752.0,740.0,730.0,678.0
751.0,739.0,724.0,692.0
744.0,735.0,733.0,693.0
741.0,733.0,748.0,683.0
744.0,729.0,766.0,670.0
748.0,732.0,767.0,658.0
746.0,733.0,762.0,666.0
754.0,737.0,751.0,686.0
757.0,738.0,750.0,686.0
759.0,739.0,737.0,684.0
759.0,740.0,729.0,685.0
758.0,742.0,736.0,692.0
746.0,739.0,762.0,694.0
731.0,741.0,776.0,693.0
732.0,743.0,774.0,690.0
736.0,741.0,767.0,689.0
736.0,737.0,759.0,681.0
734.0,729.0,751.0,684.0
737.0,725.0,746.0,673.0
740.0,729.0,741.0,666.0
743.0,733.0,732.0,668.0
741.0,738.0,728.0,668.0
744.0,744.0,738.0,672.0
746.0,747.0,755.0,679.0
746.0,749.0,765.0,685.0
747.0,749.0,763.0,685.0
749.0,749.0,760.0,684.0
748.0,750.0,753.0,680.0
748.0,751.0,761.0,660.0
747.0,749.0,749.0,657.0
750.0,746.0,741.0,638.0
750.0,747.0,739.0,657.0
748.0,746.0,729.0,717.0
743.0,744.0,739.0,742.0
737.0,740.0,759.0,731.0
734.0,737.0,750.0,713.0
734.0,733.0,743.0,669.0
734.0,733.0,752.0,637.0
737.0,739.0,768.0,644.0
740.0,742.0,771.0,651.0
742.0,743.0,759.0,670.0
742.0,747.0,755.0,690.0
746.0,749.0,761.0,691.0
749.0,750.0,760.0,690.0
752.0,750.0,760.0,691.0
749.0,746.0,760.0,686.0
744.0,743.0,761.0,684.0
743.0,741.0,755.0,683.0
745.0,742.0,750.0,686.0
745.0,742.0,745.0,676.0
744.0,742.0,744.0,669.0
745.0,741.0,745.0,669.0
743.0,738.0,750.0,671.0
746.0,734.0,746.0,666.0
749.0,733.0,737.0,667.0
749.0,734.0,734.0,669.0
747.0,732.0,737.0,671.0
748.0,730.0,745.0,672.0
752.0,732.0,764.0,675.0
754.0,737.0,765.0,680.0
755.0,741.0,763.0,680.0
745.0,746.0,760.0,680.0
738.0,750.0,756.0,680.0
738.0,751.0,756.0,676.0
739.0,750.0,753.0,670.0
741.0,748.0,752.0,668.0
742.0,745.0,750.0,679.0
743.0,745.0,748.0,676.0
744.0,746.0,746.0,669.0
741.0,743.0,744.0,666.0
742.0,743.0,743.0,666.0
745.0,745.0,742.0,665.0
746.0,749.0,745.0,672.0
746.0,750.0,746.0,672.0
745.0,752.0,748.0,678.0
746.0,750.0,754.0,680.0
743.0,747.0,764.0,672.0
744.0,746.0,766.0,672.0
745.0,743.0,765.0,677.0
746.0,738.0,761.0,685.0
746.0,737.0,756.0,683.0
748.0,740.0,750.0,675.0
746.0,744.0,746.0,674.0
744.0,744.0,745.0,676.0
741.0,744.0,746.0,665.0
739.0,746.0,751.0,664.0
742.0,748.0,754.0,667.0
741.0,748.0,751.0,664.0
742.0,749.0,748.0,671.0
747.0,750.0,747.0,680.0
748.0,748.0,751.0,670.0
749.0,747.0,749.0,671.0
749.0,747.0,754.0,673.0
748.0,747.0,756.0,672.0
747.0,747.0,759.0,675.0
745.0,745.0,760.0,674.0
746.0,744.0,759.0,674.0
745.0,743.0,754.0,671.0
743.0,742.0,753.0,669.0
742.0,743.0,750.0,668.0
741.0,743.0,746.0,666.0
741.0,741.0,743.0,665.0
740.0,739.0,742.0,665.0
741.0,739.0,741.0,664.0
741.0,736.0,742.0,665.0
743.0,736.0,753.0,664.0
746.0,735.0,753.0,669.0
746.0,734.0,753.0,671.0
748.0,732.0,754.0,673.0
752.0,735.0,758.0,672.0
753.0,736.0,757.0,670.0
751.0,738.0,759.0,673.0
750.0,741.0,758.0,675.0
749.0,745.0,758.0,673.0
746.0,748.0,754.0,670.0
741.0,753.0,753.0,667.0
741.0,753.0,750.0,665.0
743.0,748.0,747.0,662.0
742.0,741.0,746.0,663.0
741.0,740.0,745.0,660.0
742.0,741.0,746.0,661.0
743.0,743.0,746.0,664.0
745.0,747.0,749.0,663.0
745.0,748.0,751.0,661.0
745.0,750.0,751.0,666.0
751.0,750.0,751.0,672.0
754.0,749.0,751.0,679.0
754.0,748.0,754.0,683.0
754.0,746.0,756.0,677.0
756.0,746.0,758.0,677.0
756.0,744.0,758.0,676.0
752.0,742.0,754.0,674.0
746.0,743.0,749.0,669.0
736.0,744.0,747.0,666.0
734.0,743.0,747.0,665.0
738.0,743.0,750.0,663.0
741.0,743.0,750.0,657.0
739.0,742.0,751.0,655.0
741.0,742.0,753.0,657.0
741.0,744.0,749.0,658.0
743.0,744.0,750.0,663.0
747.0,748.0,747.0,667.0
749.0,748.0,751.0,673.0
749.0,745.0,752.0,684.0
749.0,744.0,753.0,683.0
750.0,743.0,751.0,673.0
752.0,741.0,748.0,675.0
749.0,737.0,743.0,677.0
749.0,736.0,743.0,677.0
746.0,735.0,745.0,674.0
745.0,735.0,746.0,670.0
744.0,735.0,746.0,664.0
740.0,737.0,748.0,661.0
734.0,743.0,750.0,658.0
736.0,750.0,748.0,658.0
741.0,753.0,747.0,663.0
742.0,753.0,748.0,665.0
744.0,753.0,755.0,664.0
746.0,751.0,757.0,665.0
747.0,751.0,758.0,669.0
747.0,750.0,760.0,670.0
748.0,749.0,761.0,668.0
748.0,747.0,759.0,672.0
748.0,746.0,758.0,670.0
747.0,745.0,756.0,669.0
745.0,743.0,753.0,667.0
745.0,742.0,748.0,661.0
745.0,739.0,745.0,657.0
748.0,739.0,744.0,662.0
749.0,738.0,742.0,664.0
746.0,737.0,742.0,663.0
742.0,736.0,743.0,666.0
746.0,738.0,746.0,670.0
750.0,741.0,749.0,670.0
747.0,744.0,752.0,672.0
749.0,745.0,752.0,674.0
750.0,747.0,752.0,675.0
748.0,748.0,752.0,674.0
747.0,748.0,754.0,674.0
746.0,748.0,755.0,675.0
740.0,747.0,756.0,672.0
742.0,747.0,753.0,670.0
742.0,747.0,749.0,662.0
743.0,744.0,750.0,655.0
740.0,738.0,746.0,655.0
738.0,734.0,744.0,655.0
738.0,731.0,743.0,656.0
738.0,731.0,745.0,660.0
739.0,733.0,747.0,664.0
742.0,740.0,748.0,667.0
745.0,744.0,752.0,669.0
744.0,748.0,753.0,672.0
749.0,749.0,756.0,676.0
751.0,752.0,756.0,676.0
754.0,756.0,755.0,675.0
751.0,755.0,754.0,672.0
747.0,753.0,754.0,670.0
745.0,750.0,753.0,669.0
745.0,748.0,750.0,666.0
742.0,747.0,746.0,664.0
743.0,743.0,745.0,662.0
743.0,743.0,746.0,659.0
742.0,741.0,744.0,655.0
744.0,740.0,745.0,656.0
743.0,742.0,745.0,659.0
744.0,745.0,747.0,660.0
747.0,747.0,748.0,668.0
751.0,748.0,749.0,674.0
751.0,748.0,750.0,680.0
751.0,750.0,752.0,685.0
751.0,746.0,754.0,685.0
749.0,746.0,753.0,679.0
748.0,747.0,752.0,673.0
746.0,746.0,753.0,671.0
746.0,744.0,752.0,667.0
744.0,745.0,749.0,663.0
743.0,743.0,747.0,664.0
742.0,741.0,744.0,664.0
744.0,736.0,744.0,664.0
742.0,732.0,743.0,662.0
743.0,732.0,743.0,661.0
745.0,733.0,743.0,661.0
747.0,730.0,743.0,663.0
747.0,729.0,745.0,663.0
750.0,728.0,748.0,667.0
751.0,730.0,752.0,671.0
752.0,730.0,753.0,674.0
754.0,735.0,756.0,675.0
751.0,738.0,756.0,674.0
749.0,744.0,758.0,679.0
746.0,748.0,756.0,674.0
745.0,750.0,754.0,666.0
745.0,751.0,751.0,661.0
744.0,754.0,746.0,660.0
741.0,754.0,744.0,659.0
741.0,755.0,744.0,658.0
743.0,753.0,744.0,658.0
742.0,751.0,745.0,667.0
743.0,752.0,747.0,680.0
745.0,752.0,750.0,679.0
747.0,751.0,751.0,673.0
748.0,753.0,749.0,669.0
749.0,753.0,750.0,674.0
750.0,751.0,750.0,679.0
750.0,749.0,749.0,677.0
749.0,748.0,749.0,673.0
747.0,746.0,749.0,672.0
745.0,746.0,749.0,669.0
745.0,746.0,746.0,670.0
743.0,745.0,747.0,668.0
741.0,742.0,746.0,665.0
742.0,741.0,746.0,663.0
741.0,743.0,743.0,660.0
742.0,743.0,740.0,660.0
742.0,742.0,739.0,661.0
745.0,745.0,741.0,669.0
746.0,748.0,740.0,676.0
749.0,750.0,745.0,674.0
750.0,752.0,748.0,671.0
751.0,753.0,752.0,672.0
750.0,752.0,754.0,674.0
749.0,750.0,756.0,676.0
747.0,747.0,758.0,677.0
747.0,747.0,756.0,680.0
746.0,744.0,753.0,678.0
745.0,738.0,747.0,675.0
744.0,737.0,745.0,671.0
743.0,738.0,743.0,668.0
742.0,738.0,745.0,667.0
741.0,740.0,743.0,666.0
742.0,740.0,741.0,664.0
743.0,744.0,743.0,668.0
745.0,746.0,746.0,672.0
747.0,749.0,747.0,673.0
749.0,752.0,751.0,675.0
751.0,751.0,753.0,678.0
751.0,745.0,755.0,679.0
749.0,744.0,755.0,680.0
747.0,740.0,753.0,677.0
748.0,741.0,753.0,678.0
748.0,743.0,750.0,676.0
748.0,742.0,750.0,672.0
748.0,740.0,748.0,671.0
747.0,739.0,747.0,673.0
747.0,740.0,744.0,671.0
747.0,739.0,742.0,670.0
746.0,739.0,740.0,669.0
744.0,733.0,741.0,670.0
740.0,733.0,744.0,673.0
742.0,731.0,748.0,676.0
745.0,733.0,749.0,681.0
748.0,737.0,750.0,681.0
753.0,744.0,755.0,685.0
753.0,748.0,755.0,683.0
751.0,751.0,755.0,683.0
751.0,748.0,754.0,682.0
750.0,747.0,751.0,678.0
752.0,747.0,750.0,677.0
752.0,744.0,748.0,673.0
752.0,741.0,746.0,671.0
751.0,742.0,744.0,672.0
750.0,744.0,742.0,670.0
749.0,745.0,740.0,667.0
744.0,748.0,740.0,668.0
736.0,749.0,742.0,670.0
737.0,750.0,746.0,671.0
741.0,749.0,747.0,671.0
747.0,752.0,751.0,674.0
750.0,754.0,752.0,677.0
752.0,752.0,754.0,680.0
753.0,749.0,755.0,681.0
751.0,747.0,754.0,684.0
749.0,749.0,752.0,687.0
746.0,751.0,750.0,688.0
744.0,752.0,747.0,685.0
743.0,752.0,745.0,683.0
742.0,752.0,745.0,679.0
742.0,749.0,745.0,672.0
745.0,748.0,745.0,669.0
744.0,745.0,744.0,667.0
746.0,743.0,742.0,665.0
745.0,745.0,743.0,666.0
745.0,746.0,744.0,668.0
747.0,749.0,745.0,670.0
750.0,752.0,747.0,673.0
751.0,751.0,749.0,678.0
751.0,749.0,748.0,685.0
752.0,749.0,751.0,690.0
749.0,751.0,750.0,692.0
747.0,749.0,749.0,702.0
746.0,746.0,748.0,705.0
744.0,745.0,747.0,700.0
744.0,744.0,745.0,692.0
741.0,737.0,746.0,684.0
740.0,731.0,744.0,680.0
739.0,727.0,741.0,677.0
740.0,727.0,740.0,673.0
742.0,727.0,741.0,674.0
745.0,730.0,745.0,678.0
746.0,734.0,747.0,682.0
748.0,742.0,749.0,686.0
748.0,747.0,751.0,688.0
750.0,754.0,753.0,692.0
750.0,759.0,754.0,691.0
750.0,759.0,755.0,692.0
748.0,753.0,752.0,693.0
747.0,746.0,751.0,691.0
746.0,743.0,747.0,688.0
746.0,740.0,745.0,683.0
746.0,733.0,743.0,680.0
744.0,727.0,741.0,675.0
743.0,728.0,741.0,672.0
742.0,734.0,741.0,672.0
742.0,744.0,739.0,672.0
745.0,748.0,741.0,678.0
746.0,754.0,745.0,686.0
747.0,754.0,746.0,693.0
748.0,759.0,750.0,693.0
750.0,759.0,752.0,690.0
750.0,756.0,754.0,690.0
750.0,751.0,756.0,694.0
748.0,748.0,754.0,692.0
748.0,748.0,752.0,692.0
747.0,747.0,751.0,689.0
746.0,746.0,748.0,689.0
744.0,747.0,746.0,685.0
745.0,746.0,746.0,683.0
743.0,745.0,744.0,679.0
742.0,746.0,742.0,679.0
742.0,745.0,741.0,679.0
742.0,745.0,738.0,679.0
745.0,746.0,739.0,681.0
747.0,749.0,741.0,685.0
746.0,744.0,743.0,685.0
749.0,742.0,746.0,689.0
752.0,742.0,749.0,693.0
753.0,744.0,748.0,692.0
754.0,748.0,750.0,693.0
751.0,750.0,752.0,695.0
747.0,747.0,754.0,695.0
746.0,745.0,751.0,690.0
745.0,748.0,749.0,692.0
745.0,751.0,746.0,688.0
744.0,747.0,745.0,684.0
744.0,744.0,744.0,681.0
743.0,739.0,742.0,681.0
743.0,735.0,741.0,682.0
744.0,736.0,742.0,684.0
744.0,739.0,745.0,686.0
746.0,743.0,746.0,689.0
748.0,748.0,749.0,693.0
749.0,751.0,751.0,694.0
752.0,754.0,753.0,695.0
752.0,754.0,753.0,696.0
751.0,754.0,755.0,700.0
749.0,752.0,754.0,698.0
748.0,745.0,751.0,696.0
746.0,740.0,748.0,693.0
745.0,738.0,747.0,690.0
745.0,739.0,743.0,689.0
744.0,738.0,741.0,686.0
743.0,737.0,741.0,684.0
743.0,735.0,739.0,683.0
742.0,735.0,740.0,684.0
744.0,738.0,742.0,686.0
745.0,737.0,745.0,689.0
746.0,734.0,745.0,691.0
748.0,738.0,748.0,695.0
749.0,742.0,753.0,699.0
749.0,744.0,755.0,700.0
750.0,749.0,754.0,701.0
751.0,752.0,754.0,700.0
751.0,755.0,751.0,699.0
748.0,756.0,750.0,697.0
747.0,758.0,748.0,695.0
744.0,758.0,745.0,692.0
744.0,754.0,743.0,691.0
743.0,749.0,740.0,688.0
741.0,746.0,740.0,688.0
742.0,744.0,740.0,686.0
742.0,743.0,740.0,688.0
745.0,743.0,744.0,690.0
746.0,744.0,745.0,693.0
747.0,746.0,747.0,694.0
750.0,748.0,749.0,697.0
752.0,745.0,752.0,701.0
751.0,744.0,753.0,702.0
750.0,744.0,754.0,705.0
749.0,742.0,751.0,703.0
750.0,740.0,749.0,701.0
746.0,738.0,747.0,699.0
746.0,739.0,746.0,697.0
748.0,745.0,743.0,696.0
748.0,748.0,741.0,696.0
748.0,748.0,741.0,694.0
750.0,746.0,741.0,686.0
756.0,747.0,743.0,680.0
755.0,748.0,743.0,677.0
745.0,752.0,745.0,678.0
742.0,751.0,745.0,682.0
745.0,751.0,747.0,689.0
747.0,752.0,746.0,694.0
747.0,753.0,746.0,699.0
747.0,752.0,744.0,709.0
746.0,751.0,744.0,716.0
744.0,750.0,747.0,718.0
744.0,747.0,749.0,713.0
743.0,747.0,746.0,708.0
744.0,742.0,746.0,703.0
745.0,742.0,743.0,702.0
745.0,740.0,741.0,702.0
742.0,740.0,743.0,701.0
740.0,739.0,741.0,693.0
741.0,732.0,743.0,690.0
743.0,730.0,746.0,692.0
745.0,729.0,748.0,697.0
746.0,729.0,749.0,704.0
748.0,735.0,750.0,705.0
751.0,737.0,751.0,707.0
751.0,738.0,751.0,709.0
750.0,740.0,753.0,710.0
748.0,742.0,754.0,709.0
747.0,746.0,752.0,708.0
745.0,749.0,750.0,705.0
746.0,752.0,747.0,704.0
744.0,753.0,746.0,697.0
746.0,755.0,745.0,697.0
745.0,753.0,743.0,692.0
745.0,752.0,742.0,687.0
744.0,749.0,742.0,687.0
741.0,748.0,743.0,686.0
742.0,749.0,744.0,689.0
745.0,751.0,745.0,694.0
748.0,752.0,747.0,701.0
749.0,747.0,748.0,710.0
751.0,743.0,750.0,717.0
751.0,743.0,749.0,720.0
751.0,737.0,749.0,718.0
749.0,734.0,751.0,713.0
747.0,735.0,753.0,713.0
745.0,738.0,749.0,708.0
745.0,743.0,745.0,706.0
743.0,753.0,743.0,703.0
742.0,753.0,742.0,700.0
743.0,747.0,741.0,699.0
744.0,746.0,739.0,698.0
743.0,747.0,739.0,697.0
743.0,749.0,740.0,699.0
745.0,750.0,744.0,704.0
747.0,747.0,746.0,706.0
748.0,750.0,748.0,710.0
750.0,755.0,748.0,710.0
751.0,758.0,750.0,712.0
751.0,759.0,751.0,715.0
749.0,755.0,750.0,713.0
749.0,753.0,750.0,713.0
747.0,750.0,750.0,712.0
746.0,747.0,750.0,709.0
743.0,747.0,744.0,704.0
743.0,745.0,744.0,702.0
742.0,742.0,740.0,701.0
742.0,741.0,738.0,700.0
740.0,740.0,737.0,698.0
742.0,739.0,738.0,700.0
743.0,742.0,741.0,700.0
746.0,744.0,745.0,706.0
748.0,745.0,746.0,708.0
750.0,749.0,749.0,710.0
752.0,752.0,752.0,714.0
750.0,753.0,753.0,714.0
750.0,754.0,755.0,714.0
750.0,752.0,752.0,715.0
748.0,751.0,751.0,713.0
747.0,747.0,748.0,712.0
745.0,746.0,745.0,711.0
744.0,745.0,744.0,706.0
743.0,745.0,742.0,705.0
742.0,743.0,741.0,705.0
741.0,742.0,740.0,703.0
742.0,741.0,739.0,702.0
743.0,741.0,739.0,701.0
745.0,743.0,744.0,706.0
746.0,745.0,747.0,709.0
749.0,746.0,749.0,711.0
749.0,748.0,749.0,713.0
751.0,751.0,752.0,718.0
751.0,751.0,752.0,716.0
751.0,750.0,751.0,715.0
749.0,748.0,750.0,714.0
748.0,743.0,748.0,714.0
746.0,742.0,744.0,710.0
746.0,738.0,743.0,707.0
744.0,733.0,739.0,705.0
743.0,729.0,739.0,704.0
742.0,728.0,738.0,704.0
741.0,730.0,736.0,705.0
741.0,734.0,737.0,708.0
742.0,742.0,740.0,714.0
745.0,749.0,746.0,718.0
748.0,753.0,746.0,711.0
750.0,756.0,753.0,709.0
750.0,757.0,752.0,709.0
751.0,756.0,753.0,713.0
751.0,757.0,753.0,716.0
749.0,754.0,752.0,718.0
748.0,752.0,750.0,720.0
748.0,750.0,753.0,719.0
747.0,747.0,748.0,720.0
744.0,742.0,745.0,720.0
744.0,737.0,742.0,719.0
743.0,734.0,740.0,714.0
744.0,739.0,739.0,710.0
743.0,743.0,738.0,707.0
743.0,744.0,741.0,705.0
743.0,741.0,742.0,708.0
745.0,742.0,744.0,711.0
747.0,749.0,745.0,714.0
748.0,754.0,749.0,720.0
750.0,753.0,753.0,724.0
751.0,745.0,753.0,724.0
752.0,743.0,753.0,724.0
749.0,744.0,751.0,723.0
747.0,748.0,749.0,720.0
745.0,742.0,745.0,719.0
745.0,742.0,744.0,715.0
744.0,742.0,743.0,710.0
745.0,747.0,740.0,708.0
744.0,750.0,739.0,711.0
743.0,750.0,739.0,712.0
743.0,748.0,741.0,713.0
743.0,749.0,742.0,711.0
745.0,750.0,744.0,713.0
745.0,750.0,744.0,714.0
748.0,750.0,747.0,718.0
749.0,748.0,747.0,720.0
751.0,741.0,750.0,723.0
751.0,734.0,752.0,724.0
749.0,736.0,753.0,724.0
748.0,739.0,752.0,724.0
746.0,743.0,750.0,720.0
744.0,743.0,747.0,718.0
743.0,746.0,746.0,719.0
743.0,748.0,745.0,717.0
745.0,748.0,742.0,714.0
744.0,751.0,741.0,713.0
743.0,749.0,739.0,710.0
743.0,746.0,739.0,709.0
744.0,747.0,740.0,713.0
746.0,748.0,743.0,716.0
747.0,750.0,745.0,718.0
748.0,753.0,749.0,720.0
749.0,753.0,751.0,722.0
751.0,753.0,752.0,725.0
752.0,753.0,752.0,727.0
750.0,751.0,749.0,727.0
748.0,751.0,747.0,725.0
746.0,748.0,743.0,722.0
746.0,747.0,741.0,719.0
746.0,744.0,738.0,717.0
745.0,742.0,737.0,717.0
744.0,736.0,738.0,714.0
744.0,731.0,740.0,715.0
743.0,729.0,740.0,717.0
743.0,731.0,741.0,717.0
744.0,737.0,745.0,719.0
745.0,742.0,748.0,719.0
747.0,746.0,749.0,722.0
748.0,749.0,753.0,724.0
750.0,753.0,754.0,727.0
751.0,757.0,754.0,727.0
751.0,757.0,754.0,728.0
749.0,753.0,752.0,727.0
747.0,751.0,750.0,726.0
746.0,749.0,748.0,723.0
745.0,748.0,745.0,722.0
744.0,747.0,743.0,718.0
742.0,746.0,740.0,716.0
741.0,745.0,740.0,716.0
742.0,743.0,738.0,714.0
742.0,743.0,739.0,713.0
743.0,743.0,740.0,715.0
745.0,746.0,744.0,718.0
745.0,747.0,746.0,722.0
747.0,748.0,748.0,724.0
747.0,748.0,749.0,723.0
751.0,750.0,751.0,724.0
752.0,751.0,752.0,727.0
750.0,751.0,752.0,726.0
748.0,750.0,750.0,725.0
748.0,746.0,749.0,724.0
746.0,744.0,747.0,725.0
744.0,744.0,744.0,724.0
744.0,745.0,742.0,724.0
743.0,743.0,739.0,723.0
743.0,742.0,738.0,722.0
742.0,739.0,738.0,718.0
743.0,737.0,738.0,717.0
744.0,739.0,739.0,720.0
744.0,741.0,745.0,726.0
745.0,743.0,744.0,727.0
747.0,748.0,748.0,728.0
749.0,751.0,750.0,729.0
750.0,751.0,752.0,732.0
752.0,751.0,752.0,735.0
752.0,750.0,752.0,733.0
751.0,750.0,750.0,732.0
748.0,748.0,749.0,729.0
745.0,745.0,747.0,727.0
741.0,747.0,745.0,722.0
743.0,746.0,743.0,722.0
743.0,745.0,741.0,721.0
742.0,745.0,738.0,718.0
743.0,744.0,737.0,718.0
743.0,743.0,739.0,721.0
744.0,744.0,742.0,722.0
746.0,747.0,744.0,722.0
748.0,749.0,747.0,723.0
749.0,750.0,749.0,726.0
751.0,751.0,753.0,729.0
750.0,749.0,754.0,728.0
751.0,745.0,753.0,731.0
750.0,740.0,751.0,731.0
749.0,737.0,748.0,727.0
747.0,732.0,742.0,726.0
745.0,732.0,744.0,725.0
744.0,734.0,741.0,724.0
743.0,737.0,742.0,722.0
742.0,739.0,740.0,721.0
742.0,740.0,737.0,718.0
742.0,740.0,738.0,716.0
744.0,741.0,739.0,721.0
746.0,745.0,743.0,727.0
747.0,746.0,745.0,731.0
749.0,744.0,747.0,736.0
749.0,746.0,749.0,739.0
750.0,750.0,752.0,740.0
751.0,752.0,752.0,740.0
750.0,753.0,753.0,738.0
748.0,752.0,750.0,736.0
745.0,748.0,749.0,734.0
745.0,745.0,746.0,732.0
744.0,743.0,743.0,729.0
744.0,740.0,742.0,728.0
743.0,740.0,739.0,725.0
743.0,741.0,737.0,725.0
742.0,737.0,734.0,722.0
741.0,737.0,734.0,721.0
745.0,738.0,736.0,722.0
748.0,742.0,738.0,724.0
747.0,750.0,738.0,724.0
751.0,755.0,741.0,728.0
751.0,755.0,745.0,733.0
750.0,754.0,750.0,737.0
751.0,754.0,753.0,740.0
750.0,755.0,750.0,744.0
749.0,755.0,749.0,742.0
746.0,753.0,746.0,741.0
745.0,750.0,745.0,737.0
744.0,746.0,744.0,734.0
742.0,744.0,747.0,729.0
743.0,745.0,746.0,723.0
742.0,743.0,744.0,722.0
742.0,741.0,741.0,722.0
744.0,741.0,741.0,721.0
744.0,743.0,743.0,723.0
745.0,744.0,746.0,727.0
747.0,747.0,748.0,733.0
748.0,749.0,750.0,735.0
750.0,751.0,753.0,740.0
750.0,750.0,753.0,741.0
749.0,751.0,754.0,740.0
750.0,748.0,752.0,738.0
748.0,745.0,749.0,734.0
747.0,743.0,746.0,730.0
745.0,742.0,745.0,727.0
742.0,741.0,744.0,723.0
742.0,742.0,740.0,722.0
744.0,744.0,737.0,723.0
742.0,744.0,737.0,724.0
742.0,745.0,736.0,728.0
743.0,746.0,736.0,730.0
746.0,748.0,740.0,733.0
746.0,748.0,743.0,735.0
749.0,749.0,747.0,740.0
749.0,750.0,749.0,740.0
750.0,751.0,753.0,741.0
751.0,751.0,754.0,741.0
749.0,750.0,751.0,740.0
748.0,748.0,752.0,739.0
748.0,745.0,749.0,738.0
745.0,742.0,747.0,734.0
745.0,737.0,744.0,732.0
743.0,738.0,743.0,731.0
743.0,734.0,740.0,728.0
743.0,730.0,740.0,728.0
742.0,734.0,737.0,726.0
743.0,739.0,737.0,726.0
745.0,745.0,740.0,729.0
745.0,743.0,744.0,734.0
746.0,742.0,746.0,737.0
748.0,744.0,748.0,737.0
751.0,749.0,749.0,740.0
750.0,753.0,749.0,742.0
750.0,754.0,749.0,741.0
745.0,751.0,748.0,738.0
746.0,755.0,748.0,737.0
748.0,753.0,746.0,736.0
746.0,750.0,744.0,734.0
744.0,745.0,744.0,733.0
744.0,745.0,740.0,732.0
744.0,744.0,740.0,729.0
742.0,743.0,741.0,725.0
742.0,743.0,741.0,724.0
742.0,744.0,740.0,723.0
745.0,744.0,741.0,726.0
746.0,744.0,744.0,731.0
748.0,746.0,747.0,737.0
749.0,747.0,748.0,738.0
751.0,744.0,751.0,743.0
751.0,740.0,751.0,745.0
750.0,739.0,751.0,747.0
749.0,739.0,750.0,747.0
748.0,736.0,748.0,744.0
747.0,732.0,747.0,740.0
745.0,732.0,745.0,737.0
742.0,733.0,743.0,731.0
741.0,740.0,738.0,727.0
740.0,748.0,739.0,726.0
737.0,749.0,739.0,724.0
739.0,750.0,740.0,724.0
742.0,754.0,740.0,726.0
748.0,751.0,743.0,730.0
748.0,745.0,745.0,733.0
750.0,745.0,746.0,743.0
750.0,750.0,748.0,751.0
750.0,752.0,748.0,752.0
750.0,752.0,749.0,753.0
750.0,751.0,748.0,748.0
749.0,749.0,747.0,746.0
747.0,750.0,746.0,744.0
746.0,750.0,745.0,740.0
744.0,747.0,743.0,735.0
743.0,745.0,742.0,732.0
742.0,744.0,742.0,728.0
742.0,746.0,740.0,728.0
742.0,745.0,736.0,729.0
742.0,745.0,734.0,730.0
745.0,745.0,736.0,734.0
746.0,747.0,739.0,740.0
746.0,748.0,745.0,741.0
749.0,750.0,748.0,741.0
752.0,751.0,752.0,742.0
749.0,751.0,753.0,747.0
749.0,751.0,753.0,751.0
749.0,749.0,753.0,750.0
748.0,748.0,752.0,747.0
746.0,747.0,749.0,742.0
746.0,745.0,746.0,741.0
744.0,744.0,745.0,739.0
744.0,743.0,742.0,736.0
742.0,743.0,739.0,732.0
741.0,741.0,737.0,731.0
742.0,741.0,738.0,730.0
742.0,742.0,739.0,731.0
744.0,744.0,741.0,735.0
745.0,746.0,743.0,736.0
748.0,748.0,746.0,737.0
749.0,746.0,747.0,739.0
750.0,747.0,751.0,741.0
752.0,748.0,752.0,742.0
751.0,748.0,752.0,741.0
749.0,746.0,750.0,740.0
747.0,745.0,748.0,737.0
746.0,746.0,745.0,734.0
745.0,743.0,744.0,737.0
743.0,745.0,742.0,736.0
741.0,744.0,741.0,731.0
741.0,743.0,740.0,726.0
740.0,743.0,738.0,726.0
741.0,742.0,740.0,728.0
742.0,743.0,741.0,731.0
745.0,745.0,744.0,738.0
747.0,745.0,743.0,746.0
749.0,747.0,745.0,749.0
751.0,749.0,747.0,750.0
751.0,749.0,751.0,746.0
751.0,745.0,752.0,745.0
750.0,740.0,750.0,745.0
749.0,739.0,749.0,743.0
747.0,735.0,748.0,744.0
745.0,733.0,745.0,744.0
745.0,730.0,742.0,741.0
745.0,731.0,742.0,740.0
743.0,734.0,739.0,738.0
743.0,740.0,739.0,740.0
743.0,743.0,738.0,742.0
742.0,745.0,738.0,742.0
744.0,749.0,741.0,743.0
745.0,750.0,743.0,743.0
747.0,753.0,745.0,744.0
750.0,757.0,747.0,747.0
751.0,756.0,750.0,749.0
751.0,753.0,751.0,749.0
751.0,751.0,751.0,750.0
749.0,750.0,749.0,746.0
748.0,749.0,748.0,744.0
746.0,748.0,745.0,741.0
745.0,747.0,743.0,740.0
744.0,746.0,742.0,737.0
743.0,744.0,738.0,732.0
742.0,744.0,735.0,730.0
741.0,743.0,735.0,730.0
741.0,743.0,734.0,732.0
742.0,743.0,736.0,741.0
744.0,744.0,739.0,749.0
746.0,746.0,743.0,751.0
749.0,746.0,746.0,754.0
750.0,744.0,748.0,753.0
752.0,743.0,750.0,754.0
752.0,743.0,750.0,755.0
749.0,743.0,751.0,754.0
748.0,741.0,749.0,751.0
746.0,743.0,749.0,749.0
745.0,744.0,745.0,747.0
745.0,747.0,743.0,743.0
743.0,747.0,741.0,740.0
743.0,745.0,739.0,740.0
743.0,745.0,738.0,740.0
742.0,745.0,737.0,734.0
743.0,745.0,737.0,731.0
743.0,746.0,741.0,733.0
746.0,747.0,744.0,738.0
747.0,748.0,744.0,740.0
749.0,749.0,748.0,745.0
750.0,751.0,751.0,752.0
750.0,751.0,752.0,751.0
750.0,752.0,752.0,750.0
749.0,749.0,750.0,747.0
746.0,749.0,748.0,743.0
745.0,746.0,747.0,739.0
744.0,745.0,745.0,738.0
743.0,743.0,743.0,736.0
742.0,744.0,740.0,737.0
741.0,742.0,738.0,737.0
741.0,742.0,737.0,736.0
742.0,742.0,736.0,738.0
742.0,742.0,738.0,739.0
744.0,744.0,741.0,743.0
745.0,745.0,746.0,748.0
748.0,746.0,749.0,751.0
748.0,748.0,748.0,754.0
750.0,750.0,751.0,754.0
750.0,749.0,752.0,751.0
750.0,750.0,752.0,749.0
750.0,748.0,753.0,744.0
747.0,747.0,751.0,741.0
745.0,745.0,749.0,737.0
745.0,745.0,749.0,736.0
744.0,744.0,746.0,735.0
743.0,742.0,743.0,738.0
743.0,742.0,739.0,743.0
742.0,742.0,735.0,742.0
742.0,741.0,733.0,741.0
743.0,744.0,733.0,738.0
745.0,744.0,735.0,741.0
746.0,744.0,735.0,743.0
748.0,747.0,738.0,748.0
749.0,749.0,739.0,751.0
750.0,749.0,746.0,753.0
750.0,750.0,752.0,755.0
749.0,748.0,753.0,758.0
748.0,747.0,753.0,760.0
746.0,746.0,753.0,761.0
745.0,744.0,752.0,761.0
745.0,741.0,748.0,755.0
744.0,743.0,745.0,749.0
742.0,741.0,744.0,745.0
742.0,741.0,742.0,742.0
742.0,741.0,739.0,738.0
743.0,741.0,738.0,738.0
744.0,743.0,739.0,743.0
745.0,745.0,744.0,746.0
746.0,745.0,745.0,747.0
748.0,748.0,747.0,748.0
750.0,749.0,751.0,749.0
750.0,749.0,750.0,749.0
751.0,750.0,746.0,752.0
750.0,749.0,742.0,752.0
748.0,747.0,738.0,752.0
746.0,746.0,736.0,746.0
745.0,745.0,736.0,741.0
745.0,744.0,739.0,738.0
744.0,742.0,744.0,742.0
743.0,742.0,745.0,745.0
743.0,742.0,743.0,744.0
743.0,741.0,744.0,744.0
743.0,742.0,744.0,746.0
744.0,745.0,745.0,749.0
746.0,744.0,747.0,747.0
746.0,744.0,751.0,747.0
749.0,745.0,751.0,750.0
750.0,747.0,754.0,754.0
749.0,745.0,754.0,753.0
750.0,746.0,754.0,754.0
749.0,746.0,753.0,756.0
747.0,745.0,751.0,754.0
746.0,745.0,748.0,750.0
745.0,746.0,747.0,748.0
744.0,744.0,743.0,745.0
741.0,743.0,742.0,741.0
742.0,742.0,740.0,740.0
742.0,738.0,738.0,739.0
742.0,737.0,738.0,739.0
744.0,739.0,738.0,741.0
746.0,744.0,741.0,743.0
748.0,746.0,743.0,745.0
748.0,748.0,746.0,747.0
750.0,747.0,749.0,750.0
751.0,750.0,751.0,752.0
750.0,752.0,751.0,752.0
749.0,753.0,752.0,747.0
749.0,750.0,751.0,742.0
748.0,747.0,748.0,738.0
747.0,744.0,745.0,736.0
744.0,742.0,742.0,733.0
744.0,742.0,741.0,735.0
743.0,741.0,736.0,738.0
743.0,742.0,733.0,747.0
743.0,740.0,730.0,757.0
742.0,737.0,729.0,761.0
744.0,735.0,732.0,765.0
745.0,734.0,738.0,763.0
747.0,734.0,744.0,758.0
749.0,738.0,750.0,756.0
751.0,742.0,752.0,757.0
750.0,745.0,752.0,758.0
750.0,747.0,753.0,759.0
748.0,750.0,754.0,756.0
748.0,753.0,756.0,753.0
745.0,755.0,751.0,746.0
745.0,753.0,747.0,747.0
743.0,750.0,744.0,746.0
744.0,746.0,742.0,746.0
743.0,745.0,739.0,744.0
741.0,744.0,735.0,740.0
742.0,745.0,734.0,741.0
741.0,744.0,735.0,747.0
744.0,746.0,736.0,752.0
745.0,746.0,741.0,757.0
748.0,749.0,748.0,759.0
751.0,749.0,751.0,760.0
752.0,751.0,754.0,757.0
750.0,751.0,756.0,755.0
751.0,749.0,756.0,756.0
749.0,749.0,754.0,754.0
748.0,747.0,751.0,751.0
746.0,745.0,748.0,745.0
745.0,744.0,747.0,744.0
745.0,744.0,743.0,740.0
743.0,743.0,741.0,735.0
744.0,743.0,740.0,732.0
742.0,742.0,736.0,729.0
743.0,741.0,735.0,732.0
745.0,743.0,735.0,742.0
745.0,746.0,737.0,750.0
747.0,746.0,737.0,761.0
749.0,748.0,741.0,763.0
749.0,749.0,746.0,764.0
750.0,749.0,748.0,764.0
750.0,750.0,748.0,763.0
749.0,748.0,749.0,758.0
748.0,748.0,748.0,756.0
747.0,746.0,749.0,752.0
746.0,745.0,750.0,748.0
744.0,744.0,746.0,743.0
745.0,743.0,744.0,743.0
743.0,742.0,744.0,741.0
743.0,741.0,747.0,741.0
742.0,741.0,746.0,740.0
742.0,741.0,743.0,740.0
745.0,743.0,741.0,741.0
746.0,745.0,740.0,742.0
748.0,745.0,745.0,745.0
749.0,748.0,747.0,753.0
751.0,749.0,751.0,761.0
751.0,749.0,751.0,766.0
751.0,749.0,751.0,771.0
749.0,747.0,754.0,772.0
747.0,746.0,755.0,766.0
745.0,744.0,752.0,761.0
745.0,745.0,749.0,757.0
744.0,743.0,745.0,749.0
743.0,742.0,744.0,743.0
744.0,742.0,742.0,740.0
743.0,741.0,738.0,737.0
743.0,741.0,739.0,737.0
744.0,742.0,738.0,741.0
745.0,744.0,741.0,744.0
747.0,746.0,746.0,752.0
749.0,747.0,752.0,759.0
750.0,748.0,752.0,762.0
752.0,749.0,752.0,765.0
751.0,749.0,752.0,765.0
751.0,748.0,750.0,765.0
749.0,747.0,748.0,763.0
747.0,745.0,744.0,766.0
746.0,744.0,741.0,763.0
745.0,740.0,736.0,755.0
744.0,737.0,729.0,743.0
742.0,734.0,727.0,735.0
742.0,732.0,730.0,734.0
742.0,731.0,733.0,737.0
743.0,732.0,740.0,740.0
745.0,737.0,740.0,742.0
746.0,740.0,745.0,744.0
748.0,742.0,744.0,749.0
748.0,745.0,747.0,761.0
749.0,749.0,751.0,772.0
749.0,753.0,755.0,768.0
749.0,756.0,756.0,760.0
749.0,755.0,755.0,753.0
748.0,752.0,753.0,755.0
746.0,749.0,750.0,756.0
745.0,746.0,747.0,748.0
744.0,744.0,741.0,738.0
744.0,744.0,738.0,738.0
742.0,744.0,738.0,745.0
742.0,744.0,738.0,752.0
742.0,744.0,740.0,752.0
742.0,744.0,744.0,750.0
744.0,745.0,751.0,748.0
745.0,747.0,755.0,750.0
747.0,747.0,755.0,756.0
748.0,749.0,753.0,759.0
750.0,750.0,753.0,760.0
750.0,750.0,748.0,758.0
751.0,750.0,745.0,760.0
748.0,749.0,745.0,756.0
748.0,747.0,745.0,750.0
746.0,746.0,742.0,746.0
745.0,745.0,740.0,743.0
745.0,744.0,733.0,740.0
744.0,743.0,730.0,734.0
743.0,742.0,727.0,735.0
742.0,742.0,720.0,744.0
743.0,741.0,718.0,753.0
744.0,743.0,720.0,756.0
745.0,745.0,731.0,762.0
746.0,745.0,750.0,764.0
748.0,747.0,764.0,764.0
749.0,747.0,765.0,764.0
750.0,749.0,763.0,765.0
750.0,750.0,759.0,761.0
750.0,748.0,757.0,755.0
749.0,748.0,753.0,751.0
748.0,747.0,751.0,750.0
746.0,745.0,750.0,751.0
745.0,743.0,745.0,756.0
745.0,743.0,743.0,760.0
744.0,742.0,739.0,762.0
743.0,743.0,736.0,755.0
744.0,742.0,731.0,748.0
743.0,742.0,726.0,743.0
745.0,742.0,730.0,749.0
746.0,744.0,738.0,748.0
747.0,745.0,745.0,748.0
750.0,747.0,751.0,754.0
751.0,748.0,760.0,760.0
750.0,748.0,764.0,765.0
750.0,749.0,764.0,761.0
748.0,747.0,760.0,745.0
748.0,746.0,755.0,734.0
746.0,746.0,753.0,729.0
746.0,744.0,750.0,731.0
744.0,743.0,743.0,732.0
744.0,742.0,736.0,739.0
743.0,741.0,729.0,748.0
742.0,742.0,726.0,763.0
741.0,741.0,730.0,777.0
741.0,741.0,733.0,786.0
744.0,743.0,737.0,785.0
745.0,745.0,740.0,770.0
747.0,747.0,745.0,770.0
748.0,748.0,746.0,765.0
751.0,749.0,748.0,763.0
751.0,749.0,751.0,761.0
751.0,749.0,757.0,761.0
750.0,746.0,758.0,756.0
747.0,745.0,757.0,754.0
744.0,744.0,752.0,756.0
746.0,744.0,747.0,759.0
744.0,744.0,743.0,757.0
742.0,741.0,743.0,755.0
742.0,741.0,739.0,755.0
743.0,741.0,733.0,749.0
743.0,740.0,731.0,744.0
743.0,744.0,731.0,742.0
745.0,749.0,736.0,750.0
746.0,751.0,740.0,754.0
748.0,752.0,741.0,759.0
750.0,753.0,743.0,763.0
750.0,751.0,747.0,764.0
749.0,748.0,751.0,762.0
749.0,744.0,749.0,761.0
747.0,744.0,749.0,758.0
747.0,743.0,752.0,759.0
745.0,744.0,753.0,760.0
744.0,742.0,753.0,757.0
743.0,742.0,750.0,754.0
741.0,740.0,744.0,749.0
741.0,739.0,744.0,747.0
742.0,737.0,742.0,741.0
741.0,739.0,740.0,733.0
744.0,741.0,739.0,729.0
746.0,745.0,738.0,727.0
747.0,744.0,735.0,731.0
749.0,747.0,736.0,735.0
751.0,751.0,746.0,746.0
751.0,750.0,747.0,762.0
752.0,751.0,744.0,777.0
749.0,748.0,737.0,782.0
749.0,747.0,735.0,786.0
746.0,745.0,737.0,781.0
745.0,745.0,737.0,771.0
743.0,741.0,738.0,758.0
743.0,741.0,737.0,755.0
743.0,741.0,737.0,754.0
742.0,740.0,738.0,750.0
742.0,740.0,741.0,748.0
741.0,741.0,744.0,754.0
744.0,742.0,747.0,767.0
745.0,744.0,749.0,770.0
747.0,745.0,753.0,771.0
748.0,747.0,754.0,769.0
750.0,749.0,751.0,766.0
750.0,748.0,747.0,759.0
750.0,749.0,745.0,755.0
749.0,746.0,746.0,750.0
748.0,747.0,743.0,745.0
746.0,745.0,743.0,743.0
744.0,743.0,747.0,746.0
743.0,743.0,751.0,748.0
742.0,741.0,751.0,754.0
743.0,741.0,745.0,757.0
742.0,740.0,740.0,756.0
743.0,741.0,738.0,756.0
743.0,742.0,742.0,758.0
745.0,744.0,747.0,762.0
745.0,745.0,746.0,764.0
745.0,746.0,750.0,759.0
748.0,748.0,754.0,757.0
750.0,749.0,756.0,752.0
750.0,749.0,751.0,749.0
750.0,749.0,745.0,745.0
750.0,748.0,743.0,737.0
749.0,748.0,737.0,730.0
748.0,746.0,732.0,728.0
745.0,743.0,736.0,730.0
745.0,744.0,740.0,738.0
744.0,742.0,743.0,750.0
743.0,741.0,749.0,770.0
741.0,740.0,744.0,787.0
741.0,736.0,741.0,786.0
742.0,737.0,746.0,774.0
744.0,741.0,748.0,763.0
746.0,742.0,743.0,760.0
748.0,745.0,741.0,759.0
750.0,747.0,743.0,764.0
749.0,747.0,750.0,774.0
750.0,748.0,754.0,773.0
748.0,748.0,753.0,768.0
747.0,748.0,755.0,758.0
746.0,746.0,754.0,752.0
745.0,746.0,751.0,747.0
743.0,744.0,745.0,746.0
743.0,743.0,743.0,755.0
743.0,743.0,741.0,759.0
742.0,741.0,740.0,762.0
742.0,742.0,737.0,758.0
743.0,742.0,737.0,758.0
745.0,743.0,745.0,763.0
745.0,745.0,746.0,761.0
748.0,746.0,748.0,756.0
749.0,747.0,752.0,757.0
751.0,748.0,755.0,763.0
750.0,748.0,756.0,766.0
750.0,748.0,755.0,761.0
749.0,747.0,752.0,751.0
747.0,746.0,746.0,748.0
746.0,745.0,745.0,746.0
745.0,744.0,744.0,742.0
745.0,744.0,735.0,734.0
743.0,745.0,726.0,729.0
743.0,745.0,723.0,738.0
741.0,745.0,721.0,741.0
742.0,743.0,725.0,743.0
744.0,745.0,724.0,751.0
747.0,745.0,728.0,764.0
747.0,748.0,735.0,767.0
749.0,748.0,737.0,765.0
750.0,749.0,741.0,765.0
750.0,749.0,747.0,767.0
750.0,749.0,756.0,769.0
749.0,746.0,762.0,761.0
747.0,745.0,767.0,750.0
746.0,743.0,764.0,747.0
745.0,743.0,759.0,746.0
745.0,742.0,748.0,751.0
744.0,742.0,743.0,752.0
744.0,741.0,735.0,754.0
744.0,741.0,728.0,759.0
743.0,741.0,725.0,766.0
743.0,741.0,726.0,765.0
744.0,742.0,732.0,766.0
746.0,744.0,731.0,756.0
746.0,746.0,731.0,773.0
749.0,746.0,740.0,781.0
749.0,749.0,749.0,784.0
747.0,748.0,751.0,782.0
748.0,747.0,754.0,781.0
746.0,746.0,745.0,766.0
745.0,744.0,733.0,753.0
746.0,744.0,729.0,744.0
744.0,744.0,738.0,742.0
743.0,742.0,750.0,745.0
742.0,741.0,762.0,745.0
744.0,741.0,759.0,742.0
743.0,741.0,753.0,738.0
743.0,742.0,749.0,740.0
743.0,741.0,742.0,741.0
744.0,744.0,738.0,748.0
745.0,744.0,738.0,759.0
747.0,747.0,740.0,781.0
747.0,748.0,743.0,790.0
749.0,750.0,744.0,784.0
750.0,749.0,747.0,773.0
749.0,747.0,748.0,765.0
747.0,746.0,745.0,763.0
746.0,744.0,747.0,761.0
745.0,745.0,746.0,759.0
743.0,742.0,747.0,759.0
744.0,741.0,747.0,761.0
742.0,741.0,744.0,762.0
742.0,741.0,751.0,757.0
742.0,740.0,754.0,749.0
742.0,740.0,744.0,750.0
743.0,742.0,738.0,757.0
745.0,745.0,740.0,761.0
745.0,745.0,745.0,759.0
748.0,746.0,751.0,759.0
750.0,748.0,758.0,763.0
749.0,748.0,762.0,767.0
749.0,749.0,765.0,764.0
748.0,748.0,763.0,758.0
748.0,747.0,758.0,753.0
746.0,745.0,748.0,746.0
747.0,744.0,738.0,741.0
746.0,744.0,730.0,738.0
745.0,741.0,730.0,739.0
744.0,743.0,730.0,742.0
744.0,743.0,729.0,750.0
744.0,742.0,725.0,757.0
743.0,742.0,725.0,758.0
745.0,742.0,729.0,743.0
746.0,740.0,728.0,743.0
747.0,741.0,736.0,758.0
748.0,741.0,748.0,756.0
750.0,746.0,755.0,746.0
750.0,747.0,751.0,753.0
750.0,747.0,745.0,756.0
748.0,746.0,742.0,765.0
746.0,746.0,745.0,774.0
744.0,745.0,742.0,782.0
744.0,744.0,744.0,784.0
743.0,744.0,746.0,776.0
742.0,742.0,749.0,780.0
741.0,743.0,752.0,768.0
742.0,741.0,748.0,755.0
741.0,741.0,745.0,749.0
743.0,742.0,741.0,745.0
745.0,745.0,734.0,749.0
746.0,745.0,727.0,761.0
748.0,750.0,726.0,769.0
749.0,752.0,731.0,765.0
749.0,753.0,751.0,751.0
750.0,753.0,765.0,758.0
749.0,752.0,766.0,761.0
748.0,750.0,764.0,758.0
747.0,747.0,754.0,764.0
745.0,744.0,747.0,771.0
744.0,742.0,744.0,778.0
743.0,742.0,738.0,780.0
741.0,740.0,730.0,761.0
742.0,741.0,723.0,746.0
743.0,740.0,714.0,735.0
743.0,741.0,713.0,731.0
745.0,742.0,719.0,731.0
747.0,746.0,718.0,741.0
747.0,747.0,731.0,748.0
749.0,750.0,755.0,749.0
750.0,751.0,780.0,760.0
749.0,750.0,780.0,772.0
750.0,749.0,775.0,779.0
748.0,746.0,764.0,778.0
746.0,744.0,748.0,783.0
745.0,742.0,748.0,776.0
745.0,742.0,750.0,767.0
743.0,741.0,746.0,761.0
744.0,740.0,736.0,752.0
742.0,741.0,724.0,746.0
742.0,740.0,722.0,745.0
741.0,741.0,727.0,744.0
742.0,741.0,728.0,734.0
742.0,743.0,745.0,738.0
745.0,744.0,754.0,754.0
747.0,745.0,754.0,761.0
749.0,746.0,752.0,771.0
749.0,748.0,749.0,783.0
749.0,748.0,748.0,782.0
749.0,747.0,754.0,776.0
748.0,746.0,754.0,766.0
746.0,745.0,754.0,760.0
745.0,745.0,755.0,750.0
745.0,743.0,759.0,749.0
743.0,743.0,760.0,756.0
742.0,741.0,754.0,755.0
742.0,741.0,749.0,758.0
743.0,741.0,734.0,757.0
743.0,741.0,732.0,746.0
745.0,743.0,737.0,738.0
748.0,745.0,745.0,737.0
747.0,745.0,746.0,746.0
749.0,747.0,755.0,759.0
749.0,748.0,762.0,766.0
750.0,748.0,760.0,767.0
750.0,749.0,750.0,755.0
750.0,748.0,738.0,745.0
748.0,747.0,721.0,754.0
749.0,746.0,699.0,759.0
747.0,745.0,683.0,773.0
745.0,743.0,681.0,775.0
744.0,744.0,694.0,780.0
742.0,742.0,710.0,775.0
741.0,741.0,741.0,753.0
743.0,740.0,745.0,729.0
744.0,741.0,750.0,723.0
745.0,743.0,745.0,715.0
746.0,744.0,731.0,727.0
746.0,745.0,737.0,760.0
747.0,747.0,747.0,777.0
749.0,748.0,749.0,791.0
749.0,749.0,746.0,806.0
749.0,750.0,746.0,802.0
747.0,747.0,736.0,778.0
746.0,747.0,725.0,751.0
745.0,745.0,715.0,736.0
745.0,744.0,731.0,740.0
742.0,741.0,766.0,746.0
742.0,741.0,804.0,747.0
743.0,739.0,812.0,746.0
742.0,741.0,781.0,741.0
743.0,741.0,741.0,755.0
744.0,742.0,719.0,771.0
746.0,745.0,722.0,775.0
747.0,746.0,731.0,760.0
748.0,747.0,745.0,758.0
748.0,748.0,753.0,777.0
750.0,749.0,761.0,781.0
748.0,748.0,762.0,775.0
749.0,747.0,761.0,766.0
748.0,747.0,751.0,761.0
747.0,746.0,748.0,763.0
746.0,745.0,736.0,766.0
746.0,743.0,731.0,774.0
743.0,743.0,731.0,771.0
742.0,741.0,737.0,750.0
741.0,740.0,755.0,735.0
741.0,740.0,762.0,732.0
742.0,740.0,752.0,748.0
743.0,741.0,749.0,754.0
745.0,743.0,756.0,758.0
745.0,744.0,754.0,760.0
747.0,746.0,749.0,754.0
748.0,748.0,750.0,760.0
749.0,748.0,748.0,757.0
750.0,749.0,751.0,764.0
750.0,748.0,758.0,769.0
748.0,747.0,767.0,762.0
747.0,745.0,766.0,760.0
745.0,745.0,755.0,766.0
745.0,744.0,746.0,766.0
745.0,744.0,738.0,757.0
743.0,742.0,731.0,745.0
743.0,741.0,723.0,741.0
743.0,742.0,704.0,727.0
744.0,742.0,692.0,732.0
746.0,745.0,696.0,747.0
747.0,746.0,699.0,759.0
748.0,747.0,692.0,767.0
750.0,750.0,688.0,766.0
752.0,754.0,677.0,749.0
752.0,753.0,676.0,734.0
750.0,753.0,713.0,737.0
748.0,750.0,775.0,755.0
745.0,747.0,818.0,790.0
745.0,744.0,812.0,794.0
746.0,744.0,805.0,786.0
744.0,743.0,772.0,767.0
742.0,742.0,744.0,783.0
742.0,741.0,738.0,781.0
741.0,740.0,743.0,758.0
741.0,740.0,732.0,748.0
742.0,740.0,712.0,747.0
745.0,741.0,705.0,751.0
745.0,743.0,695.0,750.0
748.0,745.0,677.0,757.0
749.0,747.0,701.0,737.0
753.0,750.0,737.0,727.0
755.0,750.0,782.0,729.0
756.0,752.0,822.0,735.0
756.0,751.0,808.0,742.0
752.0,748.0,776.0,787.0
745.0,744.0,765.0,813.0
742.0,742.0,758.0,784.0
742.0,742.0,735.0,744.0
742.0,741.0,726.0,731.0
744.0,742.0,717.0,716.0
744.0,741.0,728.0,711.0
744.0,742.0,744.0,736.0
743.0,743.0,746.0,764.0
746.0,744.0,736.0,785.0
745.0,745.0,747.0,804.0
746.0,745.0,780.0,801.0
745.0,746.0,792.0,774.0
747.0,747.0,778.0,764.0
748.0,748.0,768.0,779.0
747.0,747.0,762.0,785.0
747.0,747.0,742.0,781.0
748.0,747.0,713.0,774.0
747.0,746.0,724.0,756.0
745.0,743.0,747.0,722.0
744.0,743.0,738.0,714.0
744.0,742.0,735.0,746.0
744.0,742.0,743.0,747.0
743.0,742.0,736.0,731.0
742.0,740.0,732.0,725.0
741.0,741.0,741.0,769.0
743.0,743.0,756.0,774.0
745.0,746.0,759.0,747.0
749.0,749.0,761.0,735.0
752.0,751.0,751.0,758.0
752.0,750.0,736.0,779.0
751.0,749.0,723.0,769.0
750.0,747.0,724.0,747.0
749.0,746.0,751.0,743.0
748.0,745.0,760.0,748.0
746.0,745.0,749.0,720.0
747.0,744.0,706.0,686.0
747.0,745.0,682.0,701.0
745.0,744.0,692.0,735.0
744.0,741.0,707.0,785.0
740.0,741.0,747.0,860.0
741.0,741.0,768.0,841.0
744.0,744.0,769.0,778.0
745.0,745.0,742.0,738.0
745.0,746.0,738.0,742.0
746.0,746.0,752.0,740.0
748.0,748.0,759.0,768.0
748.0,747.0,774.0,794.0
745.0,746.0,790.0,780.0
745.0,746.0,770.0,764.0
744.0,744.0,753.0,758.0
745.0,743.0,749.0,765.0
745.0,744.0,746.0,764.0
745.0,744.0,748.0,747.0
744.0,744.0,775.0,713.0
748.0,745.0,791.0,683.0
748.0,744.0,759.0,706.0
745.0,743.0,730.0,784.0
747.0,745.0,718.0,813.0
748.0,745.0,728.0,763.0
747.0,745.0,756.0,736.0
751.0,748.0,767.0,703.0
752.0,751.0,730.0,700.0
752.0,751.0,713.0,760.0
751.0,750.0,732.0,814.0
749.0,748.0,759.0,776.0
746.0,746.0,774.0,743.0
746.0,743.0,764.0,732.0
742.0,743.0,735.0,774.0
739.0,740.0,718.0,821.0
740.0,741.0,736.0,815.0
739.0,741.0,770.0,782.0
738.0,740.0,765.0,758.0
738.0,738.0,766.0,735.0
740.0,740.0,741.0,719.0
746.0,743.0,732.0,715.0
748.0,746.0,734.0,708.0
751.0,748.0,754.0,728.0
755.0,751.0,774.0,793.0
757.0,754.0,785.0,804.0
757.0,755.0,760.0,783.0
756.0,753.0,733.0,758.0
752.0,749.0,710.0,738.0
747.0,745.0,682.0,749.0
742.0,742.0,709.0,734.0
740.0,740.0,752.0,726.0
738.0,739.0,771.0,755.0
738.0,739.0,743.0,797.0
741.0,741.0,730.0,754.0
742.0,742.0,733.0,693.0
744.0,743.0,731.0,680.0
746.0,744.0,713.0,704.0
750.0,744.0,724.0,771.0
752.0,747.0,737.0,819.0
752.0,750.0,789.0,775.0
751.0,748.0,796.0,767.0
751.0,749.0,750.0,754.0
751.0,749.0,718.0,762.0
750.0,748.0,736.0,766.0
750.0,747.0,785.0,755.0
746.0,744.0,803.0,765.0
744.0,742.0,794.0,783.0
742.0,742.0,756.0,760.0
743.0,742.0,761.0,753.0
742.0,740.0,763.0,761.0
742.0,739.0,756.0,750.0
741.0,740.0,734.0,752.0
739.0,739.0,741.0,763.0
741.0,741.0,755.0,772.0
743.0,744.0,755.0,779.0
746.0,746.0,713.0,776.0
748.0,750.0,659.0,736.0
751.0,750.0,648.0,695.0
750.0,749.0,670.0,699.0
749.0,748.0,756.0,713.0
747.0,746.0,796.0,745.0
747.0,746.0,772.0,822.0
744.0,744.0,760.0,795.0
743.0,742.0,765.0,744.0
739.0,740.0,781.0,752.0
742.0,740.0,786.0,748.0
743.0,742.0,776.0,758.0
745.0,743.0,767.0,743.0
749.0,745.0,735.0,711.0
751.0,747.0,684.0,723.0
754.0,749.0,665.0,753.0
753.0,748.0,680.0,766.0
750.0,749.0,730.0,770.0
749.0,747.0,780.0,805.0
748.0,746.0,805.0,786.0
748.0,747.0,798.0,754.0
748.0,747.0,766.0,743.0
747.0,746.0,736.0,721.0
747.0,744.0,730.0,712.0
744.0,743.0,732.0,703.0
743.0,741.0,707.0,717.0
743.0,742.0,643.0,749.0
742.0,742.0,633.0,750.0
742.0,741.0,672.0,739.0
740.0,740.0,754.0,762.0
740.0,739.0,805.0,802.0
740.0,740.0,812.0,828.0
743.0,742.0,802.0,781.0
745.0,745.0,798.0,732.0
746.0,747.0,801.0,715.0
751.0,749.0,827.0,710.0
754.0,751.0,816.0,734.0
757.0,753.0,773.0,763.0
758.0,752.0,734.0,761.0
755.0,750.0,720.0,738.0
751.0,746.0,730.0,702.0
745.0,743.0,725.0,729.0
741.0,740.0,724.0,703.0
742.0,741.0,753.0,654.0
742.0,740.0,769.0,711.0
741.0,740.0,751.0,837.0
738.0,738.0,729.0,873.0
738.0,738.0,698.0,826.0
741.0,742.0,685.0,784.0
745.0,746.0,693.0,769.0
750.0,747.0,724.0,774.0
752.0,750.0,742.0,756.0
752.0,749.0,774.0,755.0
749.0,748.0,793.0,745.0
749.0,748.0,817.0,744.0
746.0,745.0,811.0,737.0
744.0,743.0,773.0,714.0
742.0,741.0,738.0,732.0
741.0,740.0,737.0,755.0
740.0,739.0,750.0,759.0
740.0,738.0,774.0,745.0
739.0,739.0,753.0,737.0
740.0,740.0,714.0,730.0
743.0,741.0,675.0,714.0
747.0,744.0,676.0,720.0
750.0,745.0,707.0,697.0
751.0,746.0,776.0,685.0
759.0,751.0,833.0,670.0
764.0,754.0,849.0,634.0
765.0,756.0,815.0,710.0
760.0,754.0,765.0,832.0
751.0,748.0,729.0,875.0
743.0,744.0,705.0,874.0
737.0,740.0,727.0,829.0
732.0,738.0,732.0,747.0
734.0,739.0,709.0,719.0
736.0,740.0,704.0,716.0
740.0,738.0,698.0,721.0
741.0,738.0,707.0,718.0
742.0,740.0,709.0,699.0
747.0,743.0,682.0,664.0
753.0,746.0,696.0,620.0
757.0,750.0,746.0,639.0
757.0,750.0,770.0,689.0
755.0,750.0,804.0,800.0
751.0,748.0,803.0,919.0
747.0,746.0,765.0,873.0
745.0,744.0,777.0,814.0
743.0,744.0,779.0,802.0
743.0,743.0,745.0,771.0
744.0,743.0,738.0,736.0
743.0,742.0,741.0,713.0
742.0,740.0,779.0,719.0
744.0,742.0,848.0,719.0
746.0,744.0,852.0,702.0
749.0,746.0,782.0,675.0
746.0,744.0,737.0,663.0
749.0,743.0,699.0,657.0
751.0,745.0,671.0,668.0
751.0,746.0,675.0,767.0
750.0,746.0,701.0,826.0
749.0,747.0,776.0,785.0
750.0,747.0,805.0,763.0
749.0,746.0,791.0,727.0
746.0,746.0,762.0,765.0
743.0,744.0,732.0,795.0
739.0,742.0,768.0,783.0
739.0,741.0,768.0,776.0
741.0,744.0,703.0,765.0
742.0,742.0,656.0,748.0
741.0,740.0,670.0,747.0
737.0,737.0,710.0,724.0
735.0,735.0,796.0,693.0
738.0,737.0,833.0,693.0
743.0,739.0,811.0,688.0
748.0,744.0,775.0,690.0
748.0,746.0,737.0,703.0
750.0,748.0,725.0,707.0
750.0,748.0,710.0,802.0
752.0,750.0,729.0,851.0
755.0,751.0,757.0,763.0
757.0,752.0,728.0,726.0
760.0,752.0,701.0,726.0
757.0,749.0,674.0,721.0
752.0,746.0,730.0,730.0
748.0,744.0,785.0,716.0
742.0,741.0,810.0,741.0
740.0,738.0,826.0,765.0
737.0,735.0,830.0,699.0
733.0,736.0,806.0,645.0
738.0,739.0,735.0,697.0
742.0,743.0,646.0,785.0
743.0,743.0,627.0,805.0
743.0,743.0,666.0,777.0
745.0,743.0,722.0,756.0
747.0,745.0,712.0,734.0
750.0,747.0,698.0,722.0
753.0,748.0,706.0,733.0
755.0,748.0,759.0,761.0
756.0,747.0,832.0,780.0
756.0,747.0,828.0,771.0
757.0,747.0,811.0,736.0
756.0,746.0,766.0,690.0
754.0,746.0,720.0,655.0
750.0,745.0,701.0,721.0
745.0,742.0,696.0,821.0
741.0,739.0,722.0,760.0
740.0,737.0,808.0,652.0
741.0,738.0,828.0,657.0
745.0,742.0,797.0,736.0
746.0,744.0,760.0,757.0
748.0,746.0,743.0,737.0
750.0,749.0,741.0,731.0
750.0,748.0,739.0,745.0
751.0,746.0,736.0,754.0
751.0,745.0,730.0,730.0
750.0,744.0,750.0,735.0
748.0,743.0,782.0,737.0
748.0,744.0,806.0,718.0
749.0,743.0,788.0,707.0
748.0,745.0,749.0,706.0
752.0,745.0,729.0,739.0
751.0,746.0,702.0,825.0
748.0,745.0,680.0,806.0
745.0,743.0,700.0,764.0
745.0,744.0,716.0,724.0
745.0,744.0,748.0,658.0
745.0,745.0,768.0,676.0
745.0,744.0,806.0,694.0
742.0,744.0,865.0,712.0
741.0,744.0,852.0,755.0
741.0,743.0,810.0,776.0
741.0,743.0,767.0,774.0
742.0,743.0,788.0,762.0
743.0,742.0,794.0,726.0
745.0,742.0,771.0,696.0
743.0,741.0,772.0,702.0
745.0,743.0,758.0,691.0
750.0,745.0,743.0,664.0
749.0,744.0,731.0,705.0
748.0,743.0,712.0,744.0
746.0,743.0,714.0,800.0
743.0,742.0,709.0,845.0
736.0,740.0,718.0,781.0
739.0,741.0,714.0,704.0
745.0,744.0,703.0,676.0
743.0,744.0,769.0,699.0
744.0,743.0,829.0,757.0
745.0,745.0,782.0,784.0
744.0,745.0,765.0,768.0
742.0,742.0,768.0,737.0
742.0,742.0,765.0,715.0
743.0,741.0,769.0,712.0
744.0,741.0,774.0,688.0
746.0,742.0,770.0,699.0
748.0,743.0,762.0,721.0
751.0,745.0,745.0,720.0
750.0,744.0,737.0,742.0
750.0,745.0,728.0,800.0
746.0,745.0,728.0,806.0
747.0,744.0,738.0,756.0
745.0,744.0,767.0,751.0
745.0,743.0,816.0,735.0
745.0,743.0,802.0,709.0
748.0,747.0,770.0,669.0
749.0,747.0,771.0,631.0
751.0,748.0,778.0,636.0
751.0,747.0,734.0,690.0
750.0,746.0,655.0,751.0
749.0,745.0,621.0,758.0
744.0,742.0,677.0,740.0
744.0,741.0,748.0,786.0
744.0,740.0,782.0,834.0
737.0,736.0,804.0,808.0
737.0,737.0,800.0,743.0
741.0,741.0,780.0,710.0
745.0,739.0,799.0,683.0
746.0,744.0,816.0,660.0
747.0,743.0,822.0,646.0
746.0,745.0,795.0,662.0
747.0,746.0,737.0,710.0
751.0,748.0,718.0,733.0
756.0,750.0,693.0,709.0
757.0,751.0,679.0,720.0
756.0,748.0,705.0,745.0
748.0,744.0,732.0,812.0
742.0,740.0,716.0,816.0
733.0,735.0,671.0,791.0
733.0,735.0,669.0,722.0
730.0,734.0,711.0,714.0
733.0,735.0,759.0,722.0
738.0,737.0,808.0,738.0
742.0,741.0,788.0,738.0
744.0,742.0,777.0,722.0
745.0,743.0,777.0,720.0
751.0,748.0,809.0,693.0
757.0,752.0,841.0,674.0
760.0,753.0,865.0,664.0
761.0,752.0,828.0,640.0
765.0,754.0,788.0,687.0
763.0,752.0,764.0,730.0
760.0,748.0,721.0,742.0
751.0,743.0,671.0,818.0
741.0,739.0,647.0,869.0
733.0,736.0,647.0,776.0
728.0,734.0,642.0,694.0
732.0,736.0,594.0,695.0
735.0,737.0,636.0,704.0
739.0,740.0,767.0,693.0
744.0,742.0,883.0,686.0
749.0,744.0,908.0,690.0
752.0,746.0,854.0,704.0
756.0,749.0,827.0,673.0
758.0,752.0,792.0,671.0
758.0,752.0,758.0,732.0
757.0,750.0,707.0,791.0
754.0,750.0,657.0,846.0
745.0,744.0,657.0,814.0
739.0,739.0,717.0,759.0
735.0,736.0,767.0,738.0
732.0,734.0,761.0,731.0
734.0,736.0,739.0,722.0
736.0,737.0,717.0,723.0
740.0,738.0,723.0,726.0
741.0,738.0,740.0,721.0
745.0,743.0,762.0,688.0
750.0,745.0,769.0,661.0
752.0,747.0,777.0,655.0
753.0,747.0,785.0,686.0
752.0,747.0,797.0,746.0
752.0,748.0,775.0,718.0
752.0,748.0,724.0,720.0
749.0,748.0,689.0,763.0
745.0,744.0,697.0,809.0
742.0,742.0,735.0,774.0
742.0,740.0,725.0,700.0
745.0,742.0,697.0,692.0
744.0,742.0,684.0,729.0
741.0,738.0,715.0,749.0
738.0,736.0,789.0,731.0
742.0,738.0,834.0,681.0
750.0,744.0,823.0,660.0
754.0,748.0,787.0,708.0
755.0,749.0,764.0,786.0
754.0,750.0,743.0,787.0
753.0,749.0,753.0,725.0
749.0,746.0,756.0,686.0
743.0,744.0,740.0,685.0
740.0,741.0,703.0,749.0
740.0,742.0,679.0,811.0
736.0,739.0,724.0,774.0
734.0,736.0,774.0,736.0
736.0,735.0,778.0,717.0
740.0,739.0,777.0,708.0
745.0,740.0,780.0,686.0
749.0,742.0,767.0,663.0
752.0,744.0,753.0,683.0
754.0,745.0,703.0,701.0
755.0,744.0,706.0,692.0
751.0,744.0,765.0,707.0
754.0,745.0,787.0,689.0
749.0,744.0,822.0,748.0
743.0,741.0,803.0,826.0
739.0,740.0,803.0,784.0
738.0,744.0,766.0,751.0
740.0,745.0,756.0,699.0
744.0,745.0,773.0,672.0
748.0,743.0,755.0,688.0
749.0,745.0,715.0,704.0
750.0,745.0,688.0,713.0
748.0,743.0,669.0,728.0
749.0,743.0,665.0,684.0
746.0,742.0,700.0,707.0
743.0,739.0,712.0,738.0
744.0,741.0,719.0,776.0
745.0,743.0,770.0,807.0
743.0,742.0,855.0,774.0
742.0,741.0,913.0,731.0
745.0,743.0,882.0,720.0
745.0,743.0,812.0,713.0
746.0,745.0,756.0,706.0
747.0,747.0,695.0,686.0
748.0,746.0,640.0,689.0
749.0,745.0,602.0,690.0
745.0,743.0,624.0,740.0
740.0,739.0,678.0,755.0
737.0,738.0,779.0,734.0
740.0,738.0,806.0,729.0
746.0,739.0,802.0,722.0
747.0,741.0,788.0,706.0
749.0,742.0,788.0,662.0
753.0,743.0,753.0,636.0
756.0,747.0,686.0,628.0
757.0,747.0,686.0,684.0
753.0,748.0,735.0,799.0
747.0,744.0,813.0,866.0
742.0,741.0,879.0,825.0
744.0,741.0,905.0,768.0
746.0,742.0,863.0,652.0
751.0,744.0,774.0,591.0
756.0,748.0,681.0,603.0
752.0,747.0,616.0,720.0
742.0,744.0,607.0,805.0
735.0,741.0,640.0,783.0
735.0,739.0,666.0,737.0
733.0,736.0,694.0,745.0
733.0,736.0,718.0,767.0
734.0,735.0,771.0,748.0
735.0,735.0,822.0,714.0
741.0,740.0,781.0,712.0
746.0,745.0,757.0,729.0
746.0,747.0,747.0,730.0
751.0,749.0,732.0,720.0
753.0,749.0,752.0,712.0
752.0,750.0,809.0,682.0
761.0,752.0,845.0,627.0
768.0,752.0,849.0,610.0
764.0,750.0,885.0,617.0
758.0,746.0,863.0,711.0
755.0,745.0,775.0,719.0
748.0,742.0,696.0,742.0
738.0,738.0,671.0,786.0
730.0,735.0,652.0,804.0
727.0,733.0,631.0,825.0
726.0,734.0,670.0,778.0
732.0,736.0,708.0,733.0
736.0,739.0,728.0,714.0
741.0,741.0,722.0,712.0
744.0,745.0,719.0,704.0
746.0,745.0,733.0,698.0
750.0,747.0,766.0,699.0
749.0,747.0,776.0,725.0
749.0,746.0,749.0,757.0
751.0,746.0,727.0,717.0
752.0,747.0,716.0,641.0
753.0,745.0,701.0,622.0
751.0,744.0,712.0,667.0
746.0,740.0,765.0,726.0
737.0,735.0,815.0,778.0
738.0,736.0,827.0,762.0
741.0,737.0,814.0,713.0
741.0,738.0,813.0,733.0
744.0,740.0,826.0,756.0
752.0,745.0,819.0,724.0
756.0,750.0,820.0,702.0
759.0,751.0,828.0,674.0
751.0,746.0,790.0,725.0
744.0,743.0,732.0,787.0
741.0,742.0,663.0,749.0
741.0,744.0,608.0,720.0
741.0,742.0,622.0,742.0
737.0,739.0,660.0,747.0
735.0,737.0,742.0,744.0
735.0,735.0,779.0,724.0
736.0,737.0,761.0,710.0
738.0,736.0,742.0,705.0
740.0,738.0,723.0,698.0
745.0,741.0,724.0,694.0
753.0,746.0,768.0,663.0
761.0,750.0,776.0,612.0
767.0,754.0,768.0,626.0
764.0,753.0,753.0,650.0
759.0,750.0,720.0,782.0
748.0,746.0,685.0,906.0
741.0,743.0,715.0,832.0
739.0,740.0,781.0,737.0
737.0,739.0,789.0,737.0
735.0,737.0,775.0,747.0
735.0,736.0,766.0,694.0
735.0,735.0,761.0,680.0
734.0,735.0,759.0,693.0
737.0,737.0,748.0,701.0
737.0,736.0,734.0,703.0
738.0,736.0,732.0,704.0
741.0,739.0,738.0,704.0
745.0,741.0,739.0,708.0
745.0,742.0,744.0,708.0
748.0,744.0,754.0,705.0
751.0,746.0,766.0,690.0
751.0,748.0,769.0,674.0
753.0,747.0,783.0,686.0
754.0,746.0,786.0,695.0
754.0,744.0,779.0,735.0
752.0,744.0,732.0,741.0
749.0,741.0,673.0,727.0
748.0,743.0,651.0,675.0
744.0,742.0,631.0,634.0
742.0,740.0,691.0,616.0
744.0,740.0,746.0,653.0
743.0,740.0,787.0,763.0
740.0,739.0,786.0,840.0
740.0,741.0,759.0,799.0
742.0,741.0,733.0,768.0
745.0,742.0,743.0,764.0
745.0,743.0,790.0,735.0
744.0,744.0,836.0,710.0
744.0,742.0,835.0,682.0
745.0,742.0,824.0,668.0
745.0,744.0,813.0,665.0
747.0,744.0,753.0,674.0
747.0,742.0,708.0,721.0
743.0,741.0,724.0,763.0
739.0,739.0,730.0,737.0
739.0,738.0,734.0,700.0
739.0,738.0,720.0,678.0
738.0,735.0,722.0,680.0
737.0,736.0,724.0,720.0
739.0,737.0,723.0,737.0
742.0,741.0,737.0,723.0
744.0,741.0,730.0,714.0
745.0,745.0,736.0,718.0
747.0,747.0,764.0,723.0
750.0,748.0,799.0,721.0
753.0,749.0,805.0,707.0
752.0,749.0,795.0,687.0
749.0,746.0,785.0,692.0
745.0,743.0,766.0,730.0
745.0,741.0,742.0,746.0
744.0,738.0,733.0,731.0
743.0,736.0,731.0,715.0
742.0,736.0,724.0,703.0
741.0,739.0,727.0,711.0
740.0,738.0,737.0,710.0
741.0,738.0,739.0,700.0
744.0,741.0,740.0,707.0
746.0,742.0,735.0,706.0
746.0,745.0,714.0,702.0
754.0,749.0,688.0,675.0
756.0,751.0,692.0,687.0
753.0,750.0,725.0,697.0
752.0,748.0,773.0,699.0
749.0,745.0,756.0,748.0
744.0,742.0,730.0,785.0
739.0,739.0,774.0,746.0
739.0,738.0,793.0,711.0
740.0,739.0,779.0,697.0
740.0,738.0,766.0,691.0
740.0,739.0,752.0,675.0
741.0,737.0,749.0,671.0
740.0,739.0,752.0,689.0
740.0,738.0,753.0,729.0
741.0,739.0,746.0,757.0
745.0,742.0,742.0,729.0
747.0,745.0,735.0,703.0
749.0,746.0,709.0,721.0
751.0,749.0,688.0,741.0
751.0,749.0,723.0,741.0
751.0,747.0,778.0,689.0
749.0,745.0,826.0,646.0
750.0,744.0,804.0,640.0
747.0,743.0,749.0,719.0
746.0,741.0,715.0,770.0
741.0,738.0,715.0,757.0
736.0,735.0,751.0,706.0
737.0,736.0,762.0,681.0
738.0,735.0,761.0,675.0
736.0,734.0,760.0,682.0
737.0,736.0,758.0,685.0
742.0,739.0,758.0,690.0
744.0,741.0,757.0,699.0
745.0,743.0,758.0,715.0
746.0,744.0,760.0,719.0
746.0,746.0,761.0,715.0
745.0,747.0,760.0,714.0
744.0,745.0,760.0,713.0
743.0,744.0,758.0,712.0
741.0,743.0,756.0,709.0
741.0,741.0,753.0,707.0
741.0,740.0,750.0,701.0
742.0,740.0,747.0,699.0
743.0,739.0,744.0,690.0
745.0,740.0,744.0,666.0
745.0,739.0,744.0,646.0
743.0,740.0,745.0,657.0
747.0,742.0,740.0,691.0
750.0,744.0,736.0,697.0
751.0,746.0,734.0,717.0
751.0,746.0,738.0,696.0
752.0,747.0,753.0,699.0
750.0,745.0,761.0,749.0
747.0,744.0,771.0,765.0
746.0,736.0,772.0,746.0
742.0,732.0,763.0,722.0
742.0,729.0,753.0,706.0
742.0,729.0,745.0,703.0
741.0,730.0,742.0,702.0
741.0,730.0,745.0,702.0
741.0,733.0,745.0,695.0
740.0,737.0,739.0,692.0
741.0,742.0,738.0,693.0
741.0,743.0,741.0,694.0
744.0,745.0,752.0,698.0
745.0,748.0,753.0,700.0
751.0,748.0,756.0,703.0
757.0,747.0,756.0,705.0
764.0,747.0,756.0,707.0
763.0,745.0,755.0,711.0
763.0,746.0,754.0,711.0
762.0,745.0,748.0,706.0
760.0,745.0,742.0,703.0
753.0,744.0,745.0,700.0
744.0,738.0,748.0,701.0
735.0,736.0,754.0,695.0
733.0,733.0,752.0,691.0
736.0,732.0,749.0,691.0
737.0,728.0,744.0,689.0
738.0,729.0,742.0,691.0
738.0,732.0,745.0,697.0
741.0,737.0,749.0,707.0
743.0,740.0,751.0,707.0
745.0,740.0,757.0,707.0
745.0,744.0,758.0,707.0
745.0,746.0,756.0,703.0
746.0,753.0,754.0,703.0
745.0,757.0,755.0,706.0
745.0,757.0,757.0,706.0
745.0,754.0,757.0,701.0
746.0,752.0,758.0,696.0
745.0,749.0,758.0,692.0
743.0,744.0,754.0,691.0
740.0,738.0,746.0,690.0
740.0,734.0,739.0,689.0
739.0,735.0,738.0,690.0
740.0,735.0,741.0,690.0
743.0,735.0,748.0,695.0
744.0,737.0,753.0,700.0
748.0,740.0,751.0,699.0
749.0,742.0,750.0,708.0
747.0,744.0,752.0,710.0
750.0,743.0,752.0,705.0
749.0,745.0,749.0,705.0
748.0,746.0,750.0,706.0
749.0,750.0,750.0,706.0
750.0,750.0,751.0,700.0
750.0,748.0,753.0,694.0
750.0,747.0,751.0,690.0
749.0,747.0,746.0,688.0
748.0,747.0,744.0,687.0
746.0,744.0,742.0,685.0
742.0,743.0,743.0,685.0
737.0,740.0,745.0,692.0
732.0,740.0,749.0,700.0
736.0,739.0,751.0,700.0
743.0,741.0,754.0,700.0
745.0,742.0,754.0,696.0
748.0,744.0,755.0,701.0
748.0,745.0,754.0,706.0
748.0,747.0,751.0,709.0
746.0,748.0,756.0,710.0
742.0,748.0,759.0,710.0
743.0,748.0,756.0,703.0
743.0,746.0,752.0,697.0
741.0,743.0,751.0,682.0
741.0,741.0,748.0,680.0
742.0,741.0,743.0,686.0
739.0,740.0,736.0,684.0
740.0,737.0,737.0,694.0
743.0,738.0,741.0,688.0
745.0,737.0,750.0,694.0
745.0,736.0,749.0,703.0
748.0,740.0,751.0,703.0
750.0,746.0,754.0,699.0
750.0,750.0,756.0,699.0
749.0,751.0,756.0,702.0
748.0,749.0,756.0,704.0
746.0,745.0,755.0,704.0
744.0,742.0,751.0,703.0
744.0,743.0,747.0,703.0
743.0,741.0,747.0,703.0
743.0,740.0,749.0,699.0
742.0,739.0,749.0,693.0
740.0,739.0,746.0,687.0
740.0,737.0,743.0,687.0
739.0,738.0,742.0,687.0
742.0,742.0,743.0,694.0
744.0,747.0,746.0,702.0
746.0,750.0,749.0,702.0
747.0,750.0,752.0,699.0
749.0,749.0,759.0,695.0
752.0,749.0,759.0,688.0
753.0,746.0,758.0,688.0
753.0,744.0,749.0,692.0
752.0,739.0,742.0,704.0
750.0,734.0,740.0,706.0
751.0,735.0,738.0,705.0
748.0,738.0,735.0,706.0
743.0,737.0,743.0,704.0
739.0,739.0,754.0,696.0
739.0,739.0,752.0,688.0
739.0,734.0,748.0,685.0
740.0,735.0,751.0,683.0
742.0,744.0,752.0,688.0
743.0,747.0,750.0,689.0
747.0,753.0,751.0,693.0
749.0,754.0,754.0,695.0
750.0,751.0,756.0,698.0
751.0,753.0,757.0,700.0
751.0,751.0,757.0,699.0
749.0,751.0,755.0,694.0
750.0,750.0,754.0,690.0
751.0,748.0,748.0,690.0
748.0,746.0,746.0,690.0
745.0,741.0,745.0,692.0
740.0,733.0,742.0,688.0
738.0,731.0,744.0,684.0
738.0,731.0,742.0,686.0
738.0,736.0,742.0,688.0
739.0,741.0,744.0,691.0
743.0,743.0,747.0,696.0
745.0,739.0,748.0,697.0
748.0,739.0,750.0,701.0
748.0,741.0,753.0,705.0
748.0,744.0,751.0,704.0
748.0,741.0,752.0,702.0
748.0,739.0,753.0,700.0
748.0,742.0,751.0,697.0
746.0,745.0,750.0,688.0
746.0,745.0,751.0,685.0
744.0,746.0,751.0,684.0
742.0,746.0,749.0,684.0
744.0,742.0,748.0,685.0
744.0,738.0,744.0,688.0
742.0,736.0,742.0,688.0
741.0,736.0,741.0,688.0
744.0,738.0,744.0,693.0
745.0,744.0,746.0,697.0
746.0,750.0,748.0,704.0
746.0,757.0,749.0,707.0
747.0,761.0,750.0,709.0
747.0,758.0,748.0,707.0
747.0,757.0,748.0,705.0
747.0,754.0,750.0,697.0
747.0,754.0,753.0,690.0
746.0,752.0,753.0,686.0
745.0,749.0,750.0,687.0
744.0,748.0,743.0,690.0
742.0,745.0,739.0,697.0
742.0,745.0,739.0,694.0
742.0,745.0,737.0,691.0
743.0,738.0,739.0,689.0
745.0,738.0,741.0,685.0
748.0,739.0,745.0,686.0
750.0,741.0,746.0,690.0
751.0,747.0,751.0,694.0
753.0,749.0,754.0,698.0
752.0,748.0,755.0,707.0
750.0,743.0,755.0,711.0
746.0,745.0,754.0,706.0
744.0,747.0,755.0,704.0
745.0,748.0,753.0,703.0
744.0,747.0,748.0,699.0
743.0,744.0,749.0,693.0
743.0,746.0,748.0,691.0
740.0,743.0,743.0,688.0
740.0,743.0,741.0,686.0
742.0,742.0,736.0,686.0
744.0,742.0,736.0,687.0
745.0,744.0,738.0,692.0
745.0,746.0,742.0,695.0
747.0,746.0,745.0,696.0
748.0,749.0,746.0,696.0
750.0,749.0,750.0,699.0
750.0,748.0,750.0,702.0
751.0,745.0,753.0,704.0
752.0,742.0,753.0,705.0
753.0,742.0,752.0,706.0
751.0,740.0,750.0,700.0
751.0,734.0,746.0,697.0
748.0,728.0,743.0,691.0
749.0,726.0,740.0,689.0
746.0,727.0,738.0,687.0
739.0,733.0,737.0,684.0
737.0,739.0,738.0,684.0
738.0,743.0,740.0,685.0
743.0,751.0,744.0,688.0
745.0,752.0,743.0,694.0
746.0,755.0,746.0,698.0
747.0,757.0,749.0,696.0
749.0,758.0,751.0,698.0
750.0,757.0,751.0,703.0
750.0,758.0,753.0,704.0
748.0,757.0,756.0,705.0
746.0,752.0,755.0,703.0
744.0,747.0,752.0,697.0
744.0,738.0,748.0,694.0
743.0,730.0,744.0,689.0
743.0,724.0,742.0,692.0
743.0,726.0,740.0,697.0
741.0,730.0,738.0,693.0
742.0,735.0,738.0,691.0
743.0,739.0,739.0,692.0
746.0,742.0,742.0,696.0
746.0,744.0,740.0,698.0
749.0,743.0,745.0,701.0
750.0,747.0,745.0,705.0
752.0,750.0,746.0,707.0
752.0,751.0,748.0,707.0
750.0,753.0,747.0,704.0
749.0,753.0,750.0,702.0
748.0,750.0,749.0,702.0
745.0,748.0,746.0,699.0
743.0,748.0,744.0,697.0
742.0,749.0,745.0,691.0
743.0,748.0,745.0,683.0
742.0,747.0,744.0,685.0
742.0,747.0,741.0,688.0
745.0,745.0,742.0,691.0
748.0,747.0,744.0,692.0
749.0,747.0,746.0,692.0
749.0,747.0,744.0,694.0
745.0,744.0,748.0,698.0
748.0,742.0,752.0,704.0
749.0,742.0,752.0,706.0
749.0,742.0,753.0,707.0
749.0,740.0,752.0,706.0
749.0,743.0,749.0,703.0
746.0,744.0,747.0,699.0
745.0,740.0,745.0,694.0
744.0,739.0,743.0,686.0
741.0,738.0,740.0,680.0
740.0,737.0,738.0,679.0
739.0,739.0,737.0,685.0
739.0,741.0,738.0,693.0
741.0,745.0,741.0,696.0
744.0,750.0,742.0,702.0
745.0,755.0,743.0,699.0
749.0,760.0,744.0,701.0
749.0,759.0,746.0,704.0
751.0,758.0,749.0,708.0
749.0,755.0,751.0,706.0
747.0,754.0,754.0,701.0
750.0,753.0,750.0,701.0
747.0,750.0,749.0,698.0
747.0,748.0,746.0,694.0
746.0,744.0,743.0,693.0
743.0,742.0,741.0,690.0
743.0,738.0,738.0,688.0
746.0,737.0,738.0,685.0
746.0,737.0,736.0,685.0
747.0,738.0,735.0,691.0
749.0,739.0,738.0,693.0
753.0,738.0,742.0,696.0
754.0,739.0,749.0,698.0
754.0,744.0,751.0,708.0
751.0,750.0,751.0,711.0
749.0,750.0,753.0,710.0
750.0,741.0,753.0,709.0
751.0,738.0,752.0,707.0
751.0,737.0,750.0,704.0
751.0,740.0,746.0,701.0
748.0,742.0,745.0,702.0
745.0,744.0,741.0,705.0
742.0,750.0,741.0,701.0
740.0,751.0,739.0,698.0
737.0,756.0,738.0,697.0
738.0,751.0,737.0,696.0
739.0,746.0,737.0,696.0
743.0,747.0,740.0,697.0
746.0,750.0,743.0,698.0
748.0,752.0,744.0,700.0
748.0,752.0,746.0,700.0
751.0,753.0,749.0,704.0
750.0,752.0,748.0,706.0
749.0,752.0,749.0,709.0
749.0,747.0,747.0,712.0
748.0,744.0,745.0,712.0
745.0,744.0,745.0,712.0
745.0,742.0,745.0,708.0
743.0,743.0,745.0,699.0
745.0,740.0,742.0,696.0
745.0,736.0,741.0,696.0
744.0,729.0,739.0,693.0
745.0,730.0,737.0,693.0
747.0,737.0,736.0,693.0
751.0,745.0,738.0,694.0
752.0,741.0,740.0,697.0
751.0,737.0,744.0,701.0
756.0,735.0,746.0,705.0
756.0,741.0,750.0,707.0
756.0,749.0,751.0,708.0
753.0,749.0,753.0,709.0
745.0,748.0,752.0,711.0
742.0,749.0,750.0,708.0
740.0,751.0,748.0,705.0
740.0,754.0,745.0,701.0
741.0,756.0,744.0,701.0
741.0,755.0,740.0,697.0
741.0,753.0,738.0,697.0
741.0,749.0,735.0,695.0
742.0,748.0,734.0,694.0
743.0,748.0,735.0,696.0
744.0,749.0,738.0,699.0
745.0,750.0,740.0,702.0
749.0,752.0,743.0,706.0
750.0,753.0,749.0,708.0
750.0,753.0,754.0,706.0
751.0,753.0,754.0,714.0
748.0,751.0,748.0,719.0
748.0,749.0,746.0,722.0
747.0,744.0,748.0,718.0
745.0,739.0,748.0,710.0
745.0,737.0,743.0,707.0
744.0,736.0,741.0,701.0
743.0,729.0,741.0,695.0
742.0,724.0,743.0,693.0
742.0,725.0,743.0,692.0
744.0,724.0,741.0,693.0
744.0,732.0,742.0,696.0
746.0,740.0,744.0,701.0
747.0,749.0,748.0,705.0
749.0,756.0,750.0,708.0
751.0,760.0,753.0,710.0
752.0,757.0,755.0,708.0
751.0,756.0,758.0,708.0
750.0,757.0,755.0,708.0
749.0,757.0,752.0,706.0
747.0,752.0,748.0,703.0
745.0,745.0,745.0,705.0
745.0,736.0,743.0,709.0
744.0,734.0,738.0,708.0
743.0,723.0,735.0,703.0
742.0,711.0,734.0,699.0
743.0,709.0,734.0,700.0
745.0,718.0,736.0,701.0
746.0,731.0,740.0,704.0
745.0,742.0,742.0,703.0
747.0,749.0,745.0,704.0
748.0,754.0,748.0,707.0
749.0,763.0,751.0,712.0
751.0,767.0,750.0,715.0
751.0,768.0,747.0,716.0
748.0,761.0,748.0,714.0
746.0,753.0,746.0,712.0
743.0,751.0,745.0,709.0
742.0,747.0,742.0,707.0
741.0,747.0,741.0,705.0
740.0,747.0,738.0,703.0
741.0,743.0,738.0,704.0
739.0,743.0,736.0,703.0
743.0,744.0,736.0,703.0
744.0,745.0,739.0,705.0
745.0,748.0,741.0,709.0
745.0,751.0,742.0,711.0
747.0,750.0,746.0,712.0
749.0,751.0,749.0,715.0
749.0,752.0,751.0,716.0
750.0,753.0,752.0,716.0
750.0,751.0,749.0,713.0
751.0,741.0,747.0,713.0
749.0,736.0,744.0,710.0
746.0,737.0,744.0,707.0
746.0,740.0,741.0,706.0
745.0,744.0,739.0,705.0
743.0,744.0,739.0,702.0
742.0,747.0,739.0,702.0
742.0,756.0,739.0,703.0
743.0,758.0,738.0,702.0
745.0,757.0,740.0,704.0
745.0,754.0,745.0,708.0
747.0,754.0,746.0,712.0
748.0,753.0,749.0,712.0
751.0,751.0,750.0,715.0
751.0,748.0,750.0,715.0
750.0,747.0,750.0,715.0
752.0,747.0,748.0,714.0
749.0,745.0,750.0,708.0
745.0,743.0,750.0,707.0
745.0,739.0,747.0,704.0
745.0,729.0,743.0,701.0
744.0,724.0,740.0,700.0
744.0,728.0,738.0,698.0
742.0,733.0,736.0,697.0
742.0,736.0,733.0,701.0
743.0,742.0,735.0,706.0
746.0,748.0,739.0,712.0
746.0,753.0,741.0,717.0
750.0,759.0,745.0,722.0
750.0,757.0,749.0,725.0
752.0,755.0,751.0,727.0
752.0,754.0,751.0,730.0
750.0,753.0,748.0,725.0
749.0,752.0,747.0,722.0
747.0,752.0,744.0,720.0
746.0,749.0,742.0,718.0
745.0,749.0,737.0,715.0
745.0,749.0,738.0,713.0
744.0,747.0,738.0,713.0
743.0,746.0,738.0,712.0
740.0,746.0,739.0,711.0
741.0,746.0,740.0,710.0
743.0,747.0,744.0,708.0
745.0,743.0,745.0,706.0
746.0,734.0,746.0,708.0
750.0,727.0,747.0,714.0
752.0,731.0,750.0,718.0
751.0,731.0,752.0,719.0
752.0,735.0,753.0,720.0
750.0,740.0,751.0,718.0
749.0,742.0,748.0,717.0
747.0,746.0,744.0,714.0
746.0,747.0,742.0,713.0
745.0,751.0,740.0,711.0
744.0,756.0,738.0,711.0
745.0,756.0,735.0,707.0
745.0,747.0,733.0,703.0
745.0,735.0,735.0,702.0
746.0,729.0,737.0,706.0
748.0,726.0,739.0,708.0
755.0,724.0,741.0,713.0
757.0,714.0,744.0,717.0
763.0,705.0,745.0,723.0
766.0,714.0,749.0,728.0
763.0,731.0,752.0,726.0
762.0,748.0,754.0,724.0
756.0,761.0,752.0,723.0
747.0,763.0,749.0,721.0
739.0,761.0,747.0,718.0
733.0,768.0,746.0,713.0
734.0,774.0,744.0,710.0
733.0,768.0,741.0,707.0
737.0,761.0,740.0,707.0
738.0,755.0,739.0,710.0
739.0,749.0,738.0,708.0
741.0,748.0,741.0,710.0
744.0,746.0,744.0,714.0
745.0,744.0,744.0,715.0
747.0,747.0,745.0,719.0
749.0,750.0,748.0,722.0
749.0,754.0,749.0,724.0
750.0,754.0,750.0,727.0
748.0,754.0,749.0,726.0
747.0,757.0,748.0,724.0
745.0,755.0,747.0,719.0
745.0,752.0,746.0,716.0
743.0,748.0,743.0,713.0
743.0,745.0,741.0,714.0
742.0,746.0,738.0,711.0
741.0,746.0,738.0,711.0
741.0,745.0,737.0,711.0
742.0,746.0,738.0,710.0
744.0,748.0,739.0,713.0
746.0,749.0,740.0,716.0
747.0,749.0,742.0,720.0
748.0,751.0,747.0,724.0
749.0,753.0,748.0,723.0
750.0,752.0,749.0,721.0
752.0,752.0,749.0,721.0
749.0,750.0,749.0,720.0
746.0,749.0,750.0,718.0
743.0,747.0,752.0,715.0
746.0,745.0,746.0,712.0
742.0,744.0,743.0,707.0
741.0,744.0,740.0,705.0
742.0,745.0,738.0,709.0
743.0,745.0,737.0,715.0
744.0,744.0,735.0,723.0
743.0,743.0,736.0,724.0
745.0,741.0,740.0,724.0
746.0,741.0,743.0,729.0
746.0,742.0,746.0,728.0
749.0,738.0,747.0,728.0
751.0,730.0,750.0,729.0
750.0,726.0,751.0,729.0
751.0,727.0,751.0,728.0
751.0,729.0,748.0,726.0
750.0,727.0,747.0,723.0
746.0,726.0,745.0,723.0
745.0,731.0,744.0,721.0
743.0,736.0,741.0,720.0
742.0,739.0,739.0,716.0
743.0,741.0,739.0,716.0
742.0,746.0,737.0,713.0
743.0,741.0,736.0,713.0
745.0,741.0,737.0,715.0
745.0,740.0,739.0,717.0
747.0,743.0,743.0,720.0
748.0,752.0,746.0,723.0
749.0,759.0,749.0,726.0
749.0,760.0,750.0,729.0
751.0,764.0,751.0,729.0
753.0,769.0,750.0,729.0
751.0,771.0,751.0,728.0
750.0,768.0,747.0,725.0
745.0,754.0,744.0,725.0
741.0,742.0,744.0,720.0
743.0,742.0,743.0,718.0
743.0,740.0,742.0,711.0
742.0,738.0,741.0,704.0
743.0,740.0,738.0,702.0
742.0,744.0,738.0,703.0
744.0,748.0,739.0,709.0
745.0,754.0,740.0,715.0
749.0,752.0,741.0,721.0
750.0,753.0,740.0,732.0
751.0,756.0,743.0,742.0
748.0,756.0,746.0,744.0
751.0,753.0,751.0,742.0
749.0,749.0,752.0,741.0
745.0,747.0,750.0,738.0
745.0,747.0,748.0,731.0
744.0,749.0,746.0,727.0
744.0,749.0,744.0,721.0
743.0,745.0,742.0,719.0
742.0,745.0,740.0,719.0
741.0,742.0,737.0,718.0
742.0,741.0,738.0,719.0
743.0,741.0,737.0,721.0
745.0,743.0,740.0,723.0
745.0,745.0,741.0,726.0
749.0,748.0,745.0,730.0
750.0,748.0,745.0,732.0
751.0,752.0,749.0,735.0
751.0,755.0,753.0,735.0
750.0,751.0,752.0,735.0
749.0,749.0,749.0,732.0
747.0,746.0,748.0,728.0
746.0,744.0,745.0,726.0
746.0,741.0,743.0,725.0
745.0,740.0,740.0,724.0
744.0,733.0,737.0,722.0
744.0,726.0,735.0,719.0
743.0,720.0,734.0,717.0
743.0,717.0,734.0,717.0
745.0,724.0,735.0,718.0
746.0,732.0,740.0,722.0
746.0,738.0,742.0,724.0
747.0,747.0,746.0,727.0
749.0,759.0,747.0,733.0
750.0,771.0,748.0,735.0
750.0,774.0,749.0,736.0
748.0,766.0,748.0,733.0
747.0,759.0,748.0,731.0
746.0,747.0,747.0,728.0
746.0,734.0,746.0,729.0
744.0,726.0,745.0,724.0
745.0,726.0,741.0,722.0
745.0,728.0,737.0,720.0
743.0,733.0,736.0,719.0
743.0,736.0,738.0,720.0
743.0,745.0,741.0,721.0
745.0,754.0,745.0,725.0
745.0,764.0,746.0,729.0
747.0,769.0,749.0,729.0
749.0,762.0,749.0,731.0
751.0,758.0,751.0,733.0
750.0,758.0,751.0,734.0
752.0,759.0,751.0,736.0
750.0,760.0,750.0,736.0
749.0,756.0,749.0,735.0
746.0,753.0,746.0,733.0
744.0,749.0,744.0,729.0
743.0,749.0,740.0,727.0
742.0,745.0,733.0,723.0
743.0,738.0,729.0,721.0
743.0,735.0,725.0,720.0
743.0,736.0,724.0,721.0
744.0,739.0,726.0,720.0
745.0,745.0,732.0,722.0
746.0,748.0,734.0,723.0
749.0,751.0,738.0,730.0
748.0,754.0,744.0,742.0
749.0,755.0,751.0,741.0
750.0,753.0,754.0,736.0
749.0,747.0,756.0,730.0
749.0,745.0,758.0,728.0
748.0,742.0,754.0,729.0
745.0,741.0,751.0,732.0
742.0,741.0,749.0,734.0
740.0,741.0,751.0,735.0
739.0,742.0,749.0,730.0
739.0,746.0,746.0,726.0
740.0,748.0,742.0,723.0
742.0,746.0,741.0,724.0
746.0,746.0,740.0,725.0
747.0,746.0,742.0,728.0
748.0,747.0,742.0,732.0
749.0,750.0,746.0,733.0
752.0,751.0,751.0,737.0
751.0,751.0,754.0,740.0
751.0,752.0,753.0,740.0
750.0,749.0,753.0,737.0
749.0,748.0,754.0,734.0
747.0,746.0,751.0,729.0
745.0,745.0,747.0,726.0
744.0,743.0,742.0,721.0
744.0,742.0,739.0,721.0
744.0,740.0,736.0,720.0
742.0,737.0,734.0,720.0
743.0,736.0,732.0,722.0
743.0,737.0,732.0,722.0
745.0,741.0,736.0,726.0
746.0,740.0,742.0,733.0
748.0,732.0,749.0,739.0
750.0,731.0,750.0,741.0
752.0,734.0,755.0,743.0
751.0,737.0,759.0,746.0
751.0,741.0,757.0,748.0
749.0,743.0,754.0,745.0
748.0,747.0,751.0,741.0
745.0,754.0,748.0,736.0
746.0,761.0,746.0,733.0
744.0,756.0,743.0,729.0
741.0,749.0,741.0,729.0
741.0,744.0,739.0,729.0
742.0,742.0,737.0,728.0
742.0,741.0,737.0,728.0
744.0,743.0,739.0,728.0
745.0,745.0,743.0,730.0
746.0,747.0,745.0,734.0
749.0,750.0,748.0,738.0
752.0,752.0,749.0,741.0
752.0,753.0,749.0,741.0
751.0,756.0,749.0,741.0
750.0,753.0,747.0,740.0
749.0,751.0,748.0,737.0
747.0,753.0,749.0,734.0
746.0,754.0,746.0,732.0
744.0,750.0,744.0,727.0
744.0,744.0,742.0,726.0
743.0,737.0,739.0,723.0
742.0,735.0,737.0,722.0
742.0,737.0,734.0,723.0
742.0,740.0,733.0,726.0
744.0,744.0,735.0,733.0
745.0,741.0,739.0,737.0
747.0,743.0,741.0,739.0
749.0,749.0,744.0,742.0
752.0,751.0,747.0,741.0
751.0,752.0,749.0,743.0
751.0,754.0,750.0,749.0
749.0,751.0,751.0,749.0
748.0,750.0,752.0,745.0
745.0,748.0,748.0,741.0
745.0,746.0,743.0,738.0
745.0,745.0,739.0,733.0
743.0,745.0,738.0,733.0
743.0,743.0,738.0,733.0
743.0,741.0,742.0,731.0
745.0,740.0,742.0,729.0
744.0,744.0,741.0,725.0
746.0,747.0,742.0,727.0
747.0,751.0,741.0,728.0
749.0,752.0,743.0,731.0
749.0,754.0,744.0,735.0
749.0,754.0,748.0,743.0
750.0,753.0,752.0,752.0
750.0,751.0,752.0,753.0
748.0,749.0,752.0,748.0
747.0,748.0,751.0,744.0
744.0,747.0,748.0,742.0
745.0,745.0,745.0,740.0
743.0,744.0,743.0,736.0
742.0,743.0,742.0,730.0
742.0,743.0,743.0,728.0
741.0,742.0,741.0,729.0
741.0,739.0,740.0,729.0
743.0,738.0,737.0,731.0
746.0,734.0,739.0,734.0
747.0,731.0,740.0,739.0
749.0,732.0,742.0,744.0
750.0,733.0,746.0,745.0
750.0,737.0,751.0,746.0
750.0,741.0,754.0,746.0
749.0,745.0,754.0,742.0
748.0,749.0,753.0,741.0
746.0,754.0,751.0,736.0
745.0,751.0,746.0,732.0
743.0,748.0,741.0,727.0
743.0,748.0,739.0,727.0
741.0,746.0,735.0,726.0
742.0,742.0,736.0,727.0
743.0,738.0,736.0,732.0
743.0,742.0,739.0,737.0
745.0,746.0,742.0,741.0
747.0,746.0,745.0,739.0
748.0,745.0,747.0,740.0
749.0,747.0,749.0,747.0
751.0,749.0,752.0,750.0
750.0,749.0,751.0,748.0
751.0,754.0,752.0,749.0
749.0,755.0,750.0,747.0
748.0,755.0,749.0,743.0
746.0,752.0,747.0,740.0
745.0,751.0,745.0,739.0
744.0,751.0,744.0,737.0
744.0,750.0,743.0,735.0
743.0,747.0,741.0,735.0
742.0,745.0,738.0,733.0
742.0,744.0,738.0,733.0
742.0,746.0,738.0,733.0
745.0,747.0,741.0,736.0
747.0,746.0,742.0,738.0
749.0,746.0,746.0,741.0
750.0,745.0,746.0,744.0
751.0,745.0,749.0,744.0
750.0,749.0,750.0,742.0
749.0,746.0,749.0,742.0
748.0,741.0,748.0,741.0
746.0,739.0,746.0,739.0
745.0,744.0,744.0,734.0
744.0,746.0,744.0,734.0
743.0,748.0,742.0,736.0
743.0,745.0,741.0,737.0
745.0,746.0,740.0,739.0
744.0,748.0,738.0,739.0
742.0,745.0,739.0,741.0
743.0,745.0,740.0,743.0
745.0,748.0,744.0,743.0
746.0,749.0,745.0,743.0
748.0,752.0,748.0,744.0
750.0,752.0,750.0,748.0
751.0,752.0,752.0,749.0
750.0,752.0,752.0,749.0
749.0,749.0,750.0,747.0
748.0,741.0,748.0,746.0
747.0,739.0,746.0,743.0
746.0,739.0,744.0,741.0
744.0,738.0,743.0,737.0
744.0,738.0,741.0,738.0
743.0,738.0,739.0,736.0
743.0,737.0,738.0,733.0
743.0,737.0,737.0,733.0
742.0,741.0,737.0,735.0
744.0,745.0,741.0,740.0
747.0,745.0,742.0,741.0
749.0,747.0,745.0,743.0
750.0,751.0,746.0,743.0
752.0,756.0,750.0,747.0
752.0,758.0,750.0,748.0
751.0,758.0,749.0,747.0
749.0,754.0,749.0,747.0
748.0,752.0,746.0,746.0
746.0,751.0,743.0,744.0
745.0,748.0,742.0,743.0
744.0,745.0,738.0,740.0
743.0,743.0,735.0,738.0
744.0,738.0,734.0,736.0
742.0,730.0,733.0,732.0
741.0,728.0,735.0,732.0
743.0,733.0,737.0,734.0
746.0,737.0,742.0,739.0
746.0,741.0,746.0,745.0
748.0,747.0,751.0,750.0
749.0,753.0,753.0,753.0
750.0,761.0,753.0,755.0
751.0,762.0,754.0,754.0
750.0,757.0,753.0,749.0
749.0,753.0,753.0,745.0
748.0,752.0,749.0,742.0
745.0,750.0,745.0,741.0
745.0,748.0,742.0,738.0
745.0,747.0,741.0,736.0
744.0,744.0,738.0,736.0
743.0,743.0,737.0,740.0
742.0,741.0,735.0,738.0
743.0,739.0,737.0,736.0
744.0,742.0,739.0,736.0
745.0,745.0,748.0,740.0
746.0,747.0,747.0,745.0
748.0,750.0,750.0,747.0
751.0,751.0,752.0,749.0
751.0,748.0,752.0,749.0
752.0,747.0,753.0,750.0
751.0,746.0,748.0,748.0
747.0,746.0,746.0,746.0
746.0,744.0,744.0,744.0
745.0,746.0,741.0,743.0
743.0,748.0,739.0,743.0
744.0,748.0,737.0,741.0
743.0,746.0,736.0,736.0
742.0,744.0,734.0,732.0
742.0,743.0,736.0,731.0
743.0,743.0,739.0,731.0
745.0,746.0,743.0,734.0
746.0,749.0,746.0,739.0
749.0,749.0,748.0,744.0
749.0,750.0,749.0,745.0
751.0,751.0,752.0,753.0
751.0,751.0,753.0,754.0
750.0,752.0,754.0,754.0
749.0,750.0,754.0,753.0
747.0,749.0,752.0,753.0
746.0,747.0,749.0,750.0
745.0,746.0,745.0,751.0
744.0,744.0,743.0,747.0
743.0,743.0,741.0,746.0
743.0,743.0,740.0,743.0
742.0,742.0,738.0,741.0
743.0,740.0,737.0,741.0
744.0,739.0,737.0,740.0
745.0,742.0,739.0,742.0
746.0,743.0,742.0,745.0
748.0,740.0,748.0,748.0
750.0,737.0,749.0,751.0
750.0,734.0,750.0,753.0
750.0,737.0,749.0,753.0
750.0,737.0,744.0,750.0
748.0,736.0,743.0,749.0
747.0,739.0,742.0,748.0
746.0,745.0,744.0,743.0
744.0,749.0,746.0,739.0
743.0,754.0,745.0,734.0
743.0,755.0,741.0,730.0
743.0,754.0,737.0,730.0
742.0,750.0,734.0,729.0
743.0,746.0,733.0,729.0
745.0,748.0,736.0,735.0
747.0,751.0,739.0,745.0
748.0,752.0,744.0,752.0
748.0,752.0,751.0,757.0
751.0,753.0,755.0,761.0
751.0,752.0,754.0,761.0
750.0,753.0,752.0,759.0
750.0,750.0,750.0,759.0
747.0,749.0,750.0,759.0
745.0,748.0,749.0,753.0
746.0,749.0,746.0,749.0
744.0,746.0,744.0,746.0
743.0,743.0,743.0,744.0
743.0,741.0,743.0,743.0
742.0,742.0,741.0,741.0
742.0,742.0,740.0,739.0
743.0,742.0,741.0,739.0
746.0,742.0,743.0,742.0
746.0,743.0,745.0,745.0
749.0,747.0,746.0,749.0
748.0,749.0,748.0,750.0
750.0,751.0,751.0,754.0
749.0,750.0,752.0,754.0
749.0,752.0,751.0,752.0
749.0,750.0,750.0,747.0
747.0,749.0,747.0,743.0
746.0,746.0,746.0,740.0
745.0,745.0,746.0,739.0
744.0,744.0,745.0,737.0
743.0,742.0,741.0,737.0
744.0,737.0,736.0,743.0
741.0,735.0,735.0,748.0
743.0,736.0,734.0,753.0
744.0,740.0,737.0,754.0
746.0,743.0,743.0,758.0
746.0,745.0,745.0,753.0
749.0,748.0,749.0,750.0
749.0,753.0,751.0,750.0
750.0,757.0,750.0,751.0
751.0,755.0,750.0,753.0
749.0,750.0,747.0,751.0
748.0,749.0,748.0,751.0
748.0,748.0,747.0,753.0
746.0,745.0,743.0,750.0
745.0,745.0,738.0,745.0
744.0,745.0,736.0,741.0
743.0,744.0,734.0,738.0
742.0,744.0,729.0,736.0
742.0,742.0,724.0,735.0
742.0,742.0,725.0,734.0
744.0,745.0,728.0,736.0
746.0,746.0,736.0,740.0
747.0,748.0,743.0,745.0
749.0,749.0,750.0,752.0
751.0,751.0,755.0,760.0
750.0,749.0,757.0,762.0
750.0,744.0,759.0,765.0
749.0,736.0,760.0,764.0
748.0,728.0,758.0,760.0
746.0,724.0,754.0,755.0
745.0,727.0,752.0,751.0
744.0,731.0,746.0,748.0
741.0,733.0,744.0,746.0
740.0,737.0,741.0,744.0
740.0,743.0,735.0,742.0
740.0,753.0,732.0,741.0
741.0,759.0,733.0,741.0
744.0,757.0,737.0,743.0
748.0,753.0,744.0,745.0
750.0,753.0,754.0,750.0
750.0,755.0,756.0,750.0
752.0,755.0,755.0,752.0
752.0,755.0,750.0,750.0
751.0,754.0,749.0,746.0
750.0,753.0,745.0,743.0
