CH1
-0.000264367205090821
-0.000256242201430723
-0.000254367216257378
-0.000264367205090821
-0.000247492222115397
-0.00025374221149832
-0.000261242210399359
-0.000263742200331762
-0.000259367196122184
-0.000252492201980203
-0.000256242201430723
-0.000259992200881243
-0.000263117195572704
-0.000251242221565917
-0.000258742191363126
-0.000254367216257378
-0.000256242201430723
-0.00023749221873004
-0.0002393672184553
-0.000238742228248157
-0.000243742222664878
-0.000242492227698676
-0.000229367215069942
-0.000229992219829
-0.000226237578317523
-0.000231237572734244
-0.000233112572459504
-0.000238737586187199
-0.000234987572184764
-0.000239362576394342
-0.00023811258142814
-0.000253737583989277
-0.000261862558545545
-0.000268737552687526
-0.000265612557996064
-0.00025623757392168
-0.000262487563304603
-0.000246237585088238
-0.000241237576119602
-0.000248112570261583
-0.000249987584538758
-0.000253112579230219
-0.000253737583989277
-0.000248737575020641
-0.000250612560193986
-0.000236862571910024
-0.000232487582252361
-0.000234987572184764
-0.000233112572459504
-0.000228112578042783
-0.000219987574382685
-0.000223112583626062
-0.000221862574107945
-0.000221862574107945
-0.000225612573558465
-0.000233112572459504
-0.000221862574107945
-0.000225612573558465
-0.000234362581977621
-0.000252487574471161
-0.000250612560193986
-0.000253737583989277
-0.000253112579230219
-0.000259362568613142
-0.0002599875733722
-0.000264362577581778
-0.000264362577581778
-0.000254987564403564
-0.000261237582890317
-0.000242487585637718
-0.00024373758060392
-0.000244362570811063
-0.000252487574471161
-0.000253112579230219
-0.000248112570261583
-0.000248112570261583
-0.000251862569712102
-0.000247805553954095
-0.000242051741224714
-0.000247758493060246
-0.000256918458035216
-0.00026620554854162
-0.000256754923611879
-0.000252682919381186
-0.000241870468016714
-0.000245198752963916
-0.000237430998822674
-0.000234312654356472
-0.000241072702920064
-0.000252427969826385
-0.000252798083238304
-0.0002472075575497
-0.000266472226940095
-0.000275332073215395
-0.000285459769656882
-0.000279069208772853
-0.000279511616099626
-0.000273259327514097
-0.00027948385104537
-0.000267095630988479
-0.000256021739915013
-0.000229549143114127
-0.000228439501370303
-0.000215699896216392
-0.000205243326490745
-0.000205100179300643
-0.000193871092051268
-0.00020029628649354
-0.000187076992006041
-0.000190167338587344
-0.000193574698641896
-0.000207295233849436
-0.000214103027246892
-0.000225867377594113
-0.000237492684391327
-0.000243394548306242
-0.000255797407589853
-0.000259792781434953
-0.000253903737757355
-0.00025994298630394
-0.000284082052530721
-0.000283549859886989
-0.000294616707833484
-0.000293757708277553
-0.000308296497678384
-0.00031716626835987
-0.000321173953125253
-0.000323322776239365
-0.000310969568090513
-0.000301562366075814
-0.000267511903075501
-0.000249594275373965
-0.00024338076764252
-0.000238258973695338
-0.000218572153244168
-0.000208183395443484
-0.000202108320081606
-0.000208788100280799
-0.000192795501789078
-0.000194127467693761
-0.000197861168999225
-0.000199365487787873
-0.00020776514429599
-0.000223446331801824
-0.000232716440223157
-0.000238865788560361
-0.000250676763243973
-0.000245073693804443
-0.000248255091719329
-0.000242865600739606
-0.000238272710703313
-0.000241599438595585
-0.000243351576500572
-0.000244482216658071
-0.000239148226683028
-0.000243027549004182
-0.000234607708989643
-0.000239432964008301
-0.000236125095398165
-0.000251774356001988
-0.000264916161540896
-0.000274900812655687
-0.000271399854682386
-0.000281530374195427
-0.000282020511804149
-0.000281976885162294
-0.000279899541055784
-0.000274266203632578
-0.000262653862591833
-0.000249458098551258
-0.000253585283644497
-0.000255029066465795
-0.000266728806309402
-0.000276107428362593
-0.000279325118754059
-0.000272408040473238
-0.000287170347291976
-0.00027114967815578
-0.000255977502092719
-0.000253721053013578
-0.000260854227235541
-0.000251291901804507
-0.000246051902649924
-0.000233134123845957
-0.000220492642256431
-0.000214986794162542
-0.000195944638107903
-0.000187826968613081
-0.000187205121619627
-0.000183080017450266
-0.000181285868166015
-0.000198563429876231
-0.000206095399335027
-0.000221644047996961
-0.000234528459259309
-0.000243474220042117
-0.000248156313318759
-0.00026091409381479
-0.000282522407360375
-0.000282608380075544
-0.000278264778899029
-0.0002593306126073
-0.000257058185525239
-0.0002386643900536
-0.000232980048167519
-0.000224967967369594
-0.00022934700245969
-0.000235236206208356
-0.000229796409257688
-0.000224355550017208
-0.000219008376006968
-0.000221232417970896
-0.000218616085476242
-0.000219043766264804
-0.000222952745389193
-0.000234032704611309
-0.000227054202696308
-0.000231402984354645
-0.000223207054659724
-0.000233454149565659
-0.000233373051742092
-0.000225988871534355
-0.000224035204155371
-0.000218711182242259
-0.000224869858357124
-0.000221242633415386
-0.000223671086132526
-0.000226242438657209
-0.000227277152589522
-0.000234072445891797
-0.000237211948842741
-0.000238273627473973
-0.000238988024648279
-0.000233519938774407
-0.000234272083616815
-0.000226716423640028
-0.000217052263906226
-0.000219167704926804
-0.000218666988075711
-0.000229779703659005
-0.000233260259847157
-0.000243839938775636
-0.000234415827435441
-0.000241764253587462
-0.000244967028265819
-0.00024422854767181
-0.000244115100940689
-0.000251499994192272
-0.000263942405581474
-0.000267123832600191
-0.000262327754171565
-0.000239896617131308
-0.000236634412431158
-0.000228450924623758
-0.000234120700042695
-0.000219187189941294
-0.000217110820813104
-0.000225147625315003
-0.00024543417384848
-0.000245385337620974
-0.000240979294176213
-0.000247245829086751
-0.000247977150138468
-0.000255487917456776
-0.000243085902184248
-0.000247791031142697
-0.00024692015722394
-0.00023521609546151
-0.000219856156036258
-0.000206430442631245
-0.000202259776415303
-0.000207888399017975
-0.000220673289732076
-0.000231164900469594
-0.000230317251407541
-0.000234858496696688
-0.000248142197960988
-0.00025264683063142
-0.000257924024481326
-0.000260985922068358
-0.000273037061560899
-0.0002638605365064
-0.000265096168732271
-0.000252912315772846
-0.000249354518018663
-0.000249802891630679
-0.00023720454191789
-0.000226290183491073
-0.000232870603213087
-0.000220122237806208
-0.000211195554584265
-0.000211177786695771
-0.000208330151508562
-0.00022146366245579
-0.000224136529141106
-0.000229549143114127
-0.000228092525503598
-0.000231347468798049
-0.000228681717999279
-0.000231320766033605
-0.000225591502385214
-0.000210891419555992
-0.000214291037991643
-0.000210658487048931
-0.000217879307456315
-0.000227328811888583
-0.000245916860876605
-0.000260261149378493
-0.000269076146651059
-0.000266086863121018
-0.000265199429122731
-0.000260377215454355
-0.000255919061601162
-0.000249781733145937
-0.000245739356614649
-0.000243239366682246
-0.000231237165280618
-0.000244071648921817
-0.000241757530602626
-0.000235831845202483
-0.000220667308894917
-0.000229640019824728
-0.000222444665268995
-0.000216164815356024
-0.000217040229472332
-0.000204850206500851
-0.000209890815312974
-0.000217494918615557
-0.000220656831515953
-0.000205088581424206
-0.00020419669453986
-0.000210861588129774
-0.000228573218919337
-0.000221946233068593
-0.000236031031818129
-0.000236914856941439
-0.000254885962931439
-0.000260147382505238
-0.000269197480520234
-0.000283086730632931
-0.000280637119431049
-0.000272832636255771
-0.000270225544227287
-0.000278386403806508
-0.000283313420368358
-0.000274399761110544
-0.000267523078946397
-0.000264536793110892
-0.000265996961388737
-0.000266410526819527
-0.000250014592893422
-0.000233904327615164
-0.000220382353290915
-0.0002061150589725
-0.000204459705855697
-0.000191677492693998
-0.000182049669092521
-0.00017306262452621
-0.000176802161149681
-0.000168063503224403
-0.000174799497472122
-0.000185343596967869
-0.000204449170269072
-0.000208892073715106
-0.000215192820178345
-0.000226255157031119
-0.000248622352955863
-0.000253910635365173
-0.000244946801103652
-0.000246629730099812
-0.000251691788434982
-0.000269083131570369
-0.000270143937086686
-0.000283860397757962
-0.000279196887277067
-0.000289297488052398
-0.000278586696367711
-0.000270186777925119
-0.000263697962509468
-0.000262908200966194
-0.000253633566899225
-0.000239947534282692
-0.000239418281125836
-0.000240963534452021
-0.000234507548157126
-0.000214166575460695
-0.00020806617976632
-0.00020675927225966
-0.000211056409170851
-0.000216911008465104
-0.000219294815906323
-0.000209356774576008
-0.000210347818210721
-0.000214657164178789
-0.000218136905459687
-0.000223640468902886
-0.000215772233786993
-0.00021137879230082
-0.00020709824457299
-0.000215821230085567
-0.000213807565160096
-0.000215208900044672
-0.000213260762393475
-0.000211914957617409
-0.000215520558413118
-0.000232952341320924
-0.000255058344919235
-0.000262325920630246
-0.000270806718617678
-0.000283028377452865
-0.000305016059428453
-0.000305610941722989
-0.000306890608044341
-0.00030767364660278
-0.000306516187265515
-0.000298634608043358
-0.000293627672363073
-0.000282628025161102
-0.000258501328062266
-0.00023647747002542
-0.000215197112993337
-0.000206372118555009
-0.000196945969946683
-0.000192022416740656
-0.000187371420906857
-0.000197117697098292
-0.000194641514099203
-0.000207832912565209
-0.000217355278437026
-0.00021728289721068
-0.000217520529986359
-0.000219339694012888
-0.000225335927098058
-0.00021695313625969
-0.000223296883632429
-0.000217416934901848
-0.000217517896089703
-0.000211202161153778
-0.000220295929466374
-0.000232559730648063
-0.000249108095886186
-0.000253809848800302
-0.000259049993474036
-0.000270910968538374
-0.000286857946775854
-0.000288991985144094
-0.000287231698166579
-0.000281158107100055
-0.000267420837190002
-0.000260238943155855
-0.000250651879468933
-0.000248931755777448
-0.000233297658269294
-0.000223710143472999
-0.000210085723665543
-0.000206161421374418
-0.000198927882593125
-0.000203605755814351
-0.000197268382180482
-0.000195537519175559
-0.000196811990463175
-0.000204753639991395
-0.000219082256080583
-0.000210265454370528
-0.000204237847356126
-0.000201359434868209
-0.000209506557439454
-0.000201267554075457
-0.000196603345102631
-0.00020803626102861
-0.000218565764953382
-0.000228018223424442
-0.000244046619627625
-0.000260721397353336
-0.000270740914857015
-0.00027674256125465
-0.000272945908363908
-0.000280401611234993
-0.000279800413409248
-0.000282656226772815
-0.000275265221716836
-0.000269084790488705
-0.00025731508503668
-0.000249990989686921
-0.000231261728913523
-0.000213332488783635
-0.000208530749659985
-0.000211591366678476
-0.000213532301131636
-0.000208308934816159
-0.000209555175388232
-0.000205281015951186
-0.000200378737645224
-0.000190684935660102
-0.000206893411814235
-0.000216668879147619
-0.000229537006816827
-0.000236467021750286
-0.000227787386393174
-0.00023798446636647
-0.000248427299084142
-0.000257937383139506
-0.000249366712523624
-0.000251715944614261
-0.000247340591158718
-0.000254370301263407
-0.000260581175098196
-0.000278634688584134
-0.000277548388112336
-0.000273422745522112
-0.000275638973107562
-0.000276090227998793
-0.000285281770629808
-0.000279756466625258
-0.000273395824478939
-0.000264442438492551
-0.000258197746006772
-0.000237803760683164
-0.000233071827096865
-0.000206059674383141
-0.000189663158380426
-0.000179251044755802
-0.000188659381819889
-0.000186241552000865
-0.000183540163561702
-0.000187231227755547
-0.000208082696190104
-0.000224986928515136
-0.000228974400670268
-0.000236503954511136
-0.000236972671700642
-0.000245111936237663
-0.000224571020225994
-0.000222785733058117
-0.000229667712119408
-0.000235746207181364
-0.000225304465857334
-0.000220712230657227
-0.000231039361096919
-0.000243136310018599
-0.000255278486292809
-0.00025659627863206
-0.000268578121904284
-0.000277934013865888
-0.00028254569042474
-0.00027407708694227
-0.000274047866696492
-0.00026215982506983
-0.000263324269326404
-0.000269867479801178
-0.000266579212620854
-0.000264226458966732
-0.000253861042438075
-0.000246025825617835
-0.000227745302254334
-0.000219730820390396
-0.000212041952181607
-0.000209118399652652
-0.000208208788535558
-0.000208242345252074
-0.000210957805393264
-0.000220301153603941
-0.000221650683670305
-0.000210019701626152
-0.000205322896363214
-0.000209893580176867
-0.000224180388613604
-0.000230275210924447
-0.000239622153458185
-0.000240417866734788
-0.00024881842546165
-0.000245534320129082
-0.000252658850513399
-0.00025387792265974
-0.00025079632177949
-0.000256258907029405
-0.000254251906881109
-0.00026390005950816
-0.00027616010629572
-0.00027923405286856
-0.000267497205641121
-0.000261380890151486
-0.000261429988313466
-0.000256111437920481
-0.000246043549850583
-0.000248473428655416
-0.000231280282605439
-0.000229490382480435
-0.000222238770220429
-0.000213883846299723
-0.000211831022170372
-0.00021060707513243
-0.000223599025048315
-0.000215647523873486
-0.000228326534852385
-0.000234010687563568
-0.00023671388044022
-0.000228982346015982
-0.00022238957171794
-0.000221104986849241
-0.000224286312004551
-0.000219844485400245
-0.000215161868254654
-0.00020776508608833
-0.000209619916859083
-0.000231273181270808
-0.000234077524510212
-0.000251263612881303
-0.000263611756963655
-0.000279126630630344
-0.000277224578894675
-0.000294761877739802
-0.000291190517600626
-0.000286671915091574
-0.000263471534708515
-0.000249387114308775
-0.000247434829361737
-0.000246394076384604
-0.00024280627258122
-0.000229934157687239
-0.000221805341425352
-0.000209447913221084
-0.000207237346330658
-0.000195369066204876
-0.000196731663891114
-0.00019126532424707
-0.000187773839570582
-0.0001912102161441
-0.000199923088075593
-0.000216620057472028
-0.000225152063649148
-0.000238840962992981
-0.000244724360527471
-0.000256689527304843
-0.000254002079600468
-0.000244604656472802
-0.00023091264301911
-0.000215985288377851
-0.000214062398299575
-0.00022707661264576
-0.000234809602261521
-0.000235501327551901
-0.000223414725041948
-0.000221843656618148
-0.000222471848246641
-0.00021799658134114
-0.00021702736557927
-0.00021475536050275
-0.000223571376409382
-0.000218325629248284
-0.000225905634579249
-0.000222077695070766
-0.000225432217121124
-0.00021330542222131
-0.000199226808035746
-0.00020360029884614
-0.00022270213230513
-0.000230210600420833
-0.000232133330428041
-0.000229292563744821
-0.000224531409912743
-0.000236998806940392
-0.000219818874029443
-0.000225283205509186
-0.000217662294744514
-0.000229584620683454
-0.000223072012886405
-0.000215629552258179
-0.000210468395380303
-0.00020439522631932
-0.000208024299354292
-0.000212048849789426
-0.000225092691835016
-0.000236968291574158
-0.000245422415900975
-0.000246117677306756
-0.000234212944633327
-0.000237528685829602
-0.000252321333391592
-0.000247698568273336
-0.000250787183176726
-0.000237889573327266
-0.000244165159529075
-0.000245457253186032
-0.000238750712014735
-0.000230534322327003
-0.000217859706026502
-0.000210384183446877
-0.000196759487153031
-0.000197474888409488
-0.000204356154426932
-0.000209546749829315
-0.000204702722840011
-0.000205587275559083
-0.000213912222534418
-0.000226481060963124
-0.000228668242925778
-0.000228063756367192
-0.000227095457375981
-0.000225859679630957
-0.000231853147852234
-0.000217656415770762
-0.000219577574171126
-0.000196655048057437
-0.000198853012989275
-0.000196781606064178
-0.000211553415283561
-0.000219415422179736
-0.000225311290705576
-0.000230154866585508
-0.000222251866944134
-0.000230237987125292
-0.000237783853663132
-0.000247575400862843
-0.000240544119151309
-0.000238508146139793
-0.000238292079302482
-0.000239001994486898
-0.000221046560909599
-0.000214111656532623
-0.000208066732739098
-0.000212437735171989
-0.000209114950848743
-0.000222874441533349
-0.000229733268497512
-0.000231249403441325
-0.000239929329836741
-0.000240828434471041
-0.000248398835537955
-0.000243712900555693
-0.00023848882119637
-0.000224209594307467
-0.000220821239054203
-0.000225640469579957
-0.000227936936425976
-0.000221595488255843
-0.000210142330615781
-0.00019663643615786
-0.000196040273294784
-0.000201308910618536
-0.000196009510545991
-0.000204971918719821
-0.000199360816623084
-0.000211615391890518
-0.000210233818506822
-0.000223276831093244
-0.000240687513723969
-0.000256932544289157
-0.000253229984082282
-0.000253071426413953
-0.000245144998189062
-0.000232817357755266
-0.00022257819364313
-0.000211009668419138
-0.000200948081328534
-0.000198650464881211
-0.000208177283639088
-0.000216178959817626
-0.000216872416785918
-0.000218759116251022
-0.000232321734074503
-0.000229674158617854
-0.000236000385484658
-0.000242228852584958
-0.000251804332947358
-0.000253515609074384
-0.000243360249442048
-0.000244484632275999
-0.000227450058446266
-0.000224292234634049
-0.000205309625016525
-0.000206987184355967
-0.000213314211578108
-0.000235175204579718
-0.000238970518694259
-0.000237614920479245
-0.000233134647714905
-0.000227639466174878
-0.000229885466978885
-0.000226958305574954
-0.000229584285989404
-0.00022773869568482
-0.000240039546042681
-0.000237485262914561
-0.000247546471655369
-0.000243134592892602
-0.000237318759900518
-0.000217991138924845
-0.000211490201763809
-0.000202828116016462
-0.000208256795303896
-0.000223328970605507
-0.000232789810979739
-0.000240154273342341
-0.000241557296249084
-0.00024488745839335
-0.000234545208513737
-0.000232818361837417
-0.000218632063479163
-0.000229071563808247
-0.00022442672343459
-0.000217337263165973
-0.000221338821575046
-0.000211209087865427
-0.000208496683626436
-0.000196173990843818
-0.000207562232390046
-0.00021664667292498
-0.000228716293349862
-0.000223706374526955
-0.000227969096158631
-0.000228286808123812
-0.000236343999858946
-0.00023227721976582
-0.000237446743994951
-0.000230368925258517
-0.000228489545406774
-0.000229558951104991
-0.000228172284550965
-0.000232266364037059
-0.000221307869651355
-0.000226154967094772
-0.000219411522266455
-0.000218426575884223
-0.000220776288188063
-0.000228854521992616
-0.000231948069995269
-0.000232648788369261
-0.000227476601139642
-0.000231731770327315
-0.00023873063037172
-0.000230958714382723
-0.000229000565013848
-0.000217485910980031
-0.00020855433831457
-0.000202628318220377
-0.000189498765394092
-0.000169039136380888
-0.000180696646566503
-0.000187380428542383
-0.000198565088794567
-0.000216282889596187
-0.00021948573703412
-0.000232730730203912
-0.000231961152167059
-0.000245626579271629
-0.000248473021201789
-0.00025601769448258
-0.000247393269091845
-0.000249245757004246
-0.000248718162765726
-0.000259061460383236
-0.000231833575526252
-0.000213731647818349
-0.000201085189473815
-0.000206050419365056
-0.000206080439966172
-0.000201929826289415
-0.000207481934921816
-0.000209692632779479
-0.000209920035558753
-0.000207319419132546
-0.000209938749321736
-0.000203587071155198
-0.000196904889889993
-0.000201683767954819
-0.000206667376914993
-0.000211704056710005
-0.000211991296964697
-0.00021839737019036
-0.000207446195418015
-0.000198483918211423
-0.00020750192925334
-0.000228731558308937
-0.00022451943368651
-0.000231861427891999
-0.000229090321226977
-0.000242504451307468
-0.000235234721913002
-0.000232001664699055
-0.000245655042817816
-0.000244861876126379
-0.000243921196670271
-0.000241585337789729
-0.000254476646659896
-0.000260552857071161
-0.00025940767955035
-0.000242283276747912
-0.000235734856687486
-0.000231364800129086
-0.000240565059357323
-0.00023434980539605
-0.000230821693548933
-0.000224098374019377
-0.00022317172260955
-0.000224076502490789
-0.000219452573219314
-0.00020492059411481
-0.000192841092939489
-0.000196568595129065
-0.000185192402568646
-0.00018761471437756
-0.000184786491445266
-0.000194000196643174
-0.000199024798348546
-0.000213547740713693
-0.000226553602260537
-0.000238754524616525
-0.000231451078434475
-0.000231236146646552
-0.000234650753554888
-0.000242859954596497
-0.000253395672189072
-0.000252157711656764
-0.000261183129623532
-0.000247147487243637
-0.000249654724029824
-0.000236809981288388
-0.000232455437071621
-0.000229567885980941
-0.00023436697665602
-0.00023508578306064
-0.000221461217734031
-0.000227598837227561
-0.000233469589147717
-0.000234378967434168
-0.000221484806388617
-0.000222806571400724
-0.000228064731345512
-0.000242271635215729
-0.000232139485888183
-0.000231950587476604
-0.00022071560670156
-0.000211748454603367
-0.000211435530218296
-0.000212790735531598
-0.00020829880668316
-0.000191434635780752
-0.000208946934435517
-0.000212689687032253
-0.000223510505747981
-0.000232141435844824
-0.000245651172008365
-0.000251467048656195
-0.000252964498940855
-0.000246866839006543
-0.000259294407442212
-0.000258698768448085
-0.000248900323640555
-0.000232257385505363
-0.000239227185375057
-0.000239791537751444
-0.000226671530981548
-0.000216503962292336
-0.000203988427529111
-0.000210370373679325
-0.000205223652301356
-0.000209550998988561
-0.000211094084079377
-0.000213398860068992
-0.000218560438952409
-0.000212879574974067
-0.0002079018013319
-0.00021388370078057
-0.000226954885874875
-0.000227838259888813
-0.000228916018386371
-0.000228346412768587
-0.000236044317716733
-0.000230705772992223
-0.000224619565415196
-0.000218330067582428
-0.00022392621031031
-0.000224808289203793
-0.000225745388888754
-0.00023817882174626
-0.000233114158618264
-0.000232544349273667
-0.000222644550376572
-0.000227224183618091
-0.000232423190027475
-0.00023276629508473
-0.000223050170461647
-0.00021792713960167
-0.0002227916411357
-0.000230165635002777
-0.000224640272790566
-0.000222639893763699
-0.000217782755498774
-0.000225771698751487
-0.000232009333558381
-0.000233851402299479
-0.000237706888583489
-0.000231732657994144
-0.000238796972553246
-0.000235496365348808
-0.000236177147598937
-0.000244645081693307
-0.000254341313848272
-0.000254322279943153
-0.000247844087425619
-0.000239496643189341
-0.000240159686654806
-0.000231069803703576
-0.000214039711863734
-0.000209835052373819
-0.000213770021218806
-0.000228278106078505
-0.000228144970606081
-0.000228800156037323
-0.000220693080336787
-0.0002323263179278
-0.000232610371313058
-0.00022850812820252
-0.000225874129682779
-0.000219196837861091
-0.000203080227947794
-0.000172157902852632
-0.000168156693689525
-0.000162407450261526
-0.000180880073457956
-0.000192751962458715
-0.000203789546503685
-0.000212596671190113
-0.000228197328397073
-0.000242977461311966
-0.000249011907726526
-0.000254420621786267
-0.000260937435086816
-0.00027090820367448
-0.00027159129967913
-0.000276161154033616
-0.000268093659542501
-0.000263615918811411
-0.00024375127395615
-0.000238398279179819
-0.000226915566599928
-0.000220549525693059
-0.000214529456570744
-0.000223775350605138
-0.000233947299420834
-0.000228425313252956
-0.00023560224508401
-0.00023086293367669
-0.000223771276068874
-0.000216917644138448
-0.000228001270443201
-0.000219710840610787
-0.000211983075132594
-0.000196275024791248
-0.000188553720363416
-0.00017626874614507
-0.000174848857568577
-0.000173220571014099
-0.000178133239387535
-0.000194376189028844
-0.000198782639927231
-0.00022654322674498
-0.000241443267441355
-0.000253370963037014
-0.000250271608820185
-0.000249607808655128
-0.000249979580985382
-0.000266095710685477
-0.000272256613243371
-0.00027144851628691
-0.000268597184913233
-0.00026759781758301
-0.000257301435340196
-0.000255662540439516
-0.000240219858824275
-0.000223467461182736
-0.000234178558457643
-0.000242473150137812
-0.000238002932746895
-0.000236433013924397
-0.000228364820941351
-0.000216900007217191
-0.000198385489056818
-0.00019275417434983
-0.0001976951607503
-0.000205819887924008
-0.000204349038540386
-0.000203458897885866
-0.000205274671316147
-0.000210626007174142
-0.000193294676137157
-0.000193094572750852
-0.000193736501387321
-0.000210387079278007
-0.000217619686736725
-0.000234916515182704
-0.000249240227276459
-0.000261280511040241
-0.000261330715147778
-0.000250979763222858
-0.000257106556091458
-0.000257641804637387
-0.000262052752077579
-0.000255175371421501
-0.000246851181145757
-0.000239020198932849
-0.000242010952206328
-0.000234962557442486
-0.000234378399909474
-0.000228957025683485
-0.000230933554121293
-0.000230710153118707
-0.000224008195800707
-0.000220743721001781
-0.000206694880034774
-0.000215141320950352
-0.00021523522445932
-0.000214395418879576
-0.000215943568036891
-0.000223818715312518
-0.000218528381083161
-0.000214160187169909
-0.00021386677690316
-0.000218910601688549
-0.000227075099246576
-0.000222499133087695
-0.000225771655095741
-0.000236073305131867
-0.000255282327998429
-0.000248021387960762
-0.000249130069278181
-0.000242778463871218
-0.000256014289334416
-0.00025312346406281
-0.000253977632382885
-0.0002444006386213
-0.000237004278460517
-0.000224963208893314
-0.000207354707526974
-0.00021312347962521
-0.000207629011129029
-0.000205104021006264
-0.000205720454687253
-0.000210416328627616
-0.000211162521736696
-0.00021915725665167
-0.000213336810702458
-0.000214987681829371
-0.000228061733650975
-0.000236569452681579
-0.000243033529841341
-0.000249494594754651
-0.000246001232881099
-0.000236929467064328
-0.000239461951423436
-0.000233109705732204
-0.000232441612752154
-0.000236308245803229
-0.000240599663811736
-0.000230585705139674
-0.000227620999794453
-0.000214966392377391
-0.000211366597795859
-0.000206943936063908
-0.000205774384085089
-0.000205671109142713
-0.000217580527532846
-0.000237769214436412
-0.000226987467613071
-0.000225783558562398
-0.00022397912107408
-0.000243024813244119
-0.000235160594456829
-0.000230761273996904
-0.000225817973841913
-0.000221425056224689
-0.000219524503336288
-0.000215338688576594
-0.000217896129470319
-0.00022532140428666
-0.000236497478908859
-0.000236022053286433
-0.000248139986069873
-0.000250221870373934
-0.000257449079072103
-0.000246205163421109
-0.000245891744270921
-0.000229330209549516
-0.000227432668907568
-0.000230158679187298
-0.000220116751734167
-0.00020949931058567
-0.000217055276152678
-0.000235173487453721
-0.000219987443415448
-0.000224550094571896
-0.000221963549847715
-0.000228510281885974
-0.000224394752876833
-0.000212498984183185
-0.000204747469979338
-0.000207086923182942
-0.000203146119019948
-0.000190969265531748
-0.000180993491085246
-0.000193439118447714
-0.000217030930798501
-0.000212782906601205
-0.000217849243199453
-0.000218137589399703
-0.00024529715301469
-0.000248055235715583
-0.000253443955443799
-0.00025310815544799
-0.000257553561823443
-0.000255432416452095
-0.000249062810325995
-0.000254981307080015
-0.000258317304542288
-0.000246592913754284
-0.000238012769841589
-0.00023530148610007
-0.000227611613809131
-0.000234803912462667
-0.000228495104238391
-0.000228084463742562
-0.000218791261431761
-0.000231622427236289
-0.000244234193814918
-0.000244313094299287
-0.000241678673774004
-0.00024088192731142
-0.000238640030147508
-0.000219987487071194
-0.000216814660234377
-0.000212865197681822
-0.000214418119867332
-0.000197922141524032
-0.000176967805600725
-0.000174750050064176
-0.000195109852938913
-0.000191036742762663
-0.000186317862244323
-0.000199895846890286
-0.000221076887100935
-0.000233003229368478
-0.000234862614888698
-0.000243219299591146
-0.000236970183323137
-0.000256348983384669
-0.000250092765782028
-0.000259634660324082
-0.000260400149272755
-0.000255825201747939
-0.000253915379289538
-0.000247466174187139
-0.000240883702645078
-0.000247403222601861
-0.000238081091083586
-0.000233385391766205
-0.000232525620958768
-0.000236859385040589
-0.000240830660914071
-0.000238608292420395
-0.000236708656302653
-0.000221368332859129
-0.000217034699744545
-0.000207989767659455
-0.000202087743673474
-0.000200230744667351
-0.000190435937838629
-0.000187417404958978
-0.000174470900674351
-0.000171366380527615
-0.000172079759067856
-0.00019441063341219
-0.000201768649276346
-0.000213317514862865
-0.000220647576497868
-0.000241356377955526
-0.00025119716883637
-0.000243437374592759
-0.00023847830016166
-0.000247251824475825
-0.000260830041952431
-0.00025849009398371
-0.000255422055488452
-0.000242453112150542
-0.000243861373746768
-0.000229979210416786
-0.000230188175919466
-0.000229488272452727
-0.000222563015995547
-0.000209851816180162
-0.000205713004106656
-0.000217367603909224
-0.000227092168643139
-0.000226698437472805
-0.00021763241966255
-0.000217748674913309
-0.000216814281884581
-0.000224579242058098
-0.000219564943108708
-0.000216090644244105
-0.000208698140340857
-0.00020717314328067
-0.000211407474125735
-0.000211845355806872
-0.000208097219001502
-0.000207064964342862
-0.000219906272832304
-0.000224174320464954
-0.000225182520807721
-0.000228520628297701
-0.000235509825870395
-0.000241042929701507
-0.000246472714934498
-0.000251970021054149
-0.000271123368293047
-0.000270606367848813
-0.000262454181211069
-0.000251179473707452
-0.000239380096900277
-0.000241840141825378
-0.000223271941649727
-0.00021732461755164
-0.000207069242605939
-0.000222586662857793
-0.000212464117794298
-0.000210959842661396
-0.000213149396586232
-0.000223730312427506
-0.000231168800382875
-0.000230090357945301
-0.000224944742512889
-0.000228853037697263
-0.000236331412452273
-0.000226034986553714
-0.000225889263674617
-0.000217354056076147
-0.000223908937186934
-0.000208213066798635
-0.000216232831007801
-0.000218444751226343
-0.000233149723499082
-0.000236095307627693
-0.000242705413256772
-0.000237534113693982
-0.000235458777751774
-0.000242078458541073
-0.000237822678172961
-0.000244043723796494
-0.000245483795879409
-0.000239898610743694
-0.000231411366257817
-0.000223873707000166
-0.000212795697734691
-0.000220831643673591
-0.000209989695576951
-0.000208849989576265
-0.000213566774618812
-0.000221607289859094
-0.000230010729865171
-0.000235653264098801
-0.000249290314968675
-0.000249517353950068
-0.000257930165389553
-0.000239002387388609
-0.000238755979808047
-0.00023268508084584
-0.000231852260185406
-0.00022217707009986
-0.00021693691087421
-0.000214321844396181
-0.000210630299989134
-0.00020844473328907
-0.000208516314160079
-0.000210978832910769
-0.000207791919820011
-0.000215838415897451
-0.000214365878491662
-0.00021574881975539
-0.000204899348318577
-0.000213129678741097
-0.00021695185569115
-0.000211180464248173
-0.000200712427613325
-0.000202232316951267
-0.000201634713448584
-0.000204568656045012
-0.000207733988645486
-0.000209608930163085
-0.000229952289373614
-0.000219258858123794
-0.000213182356674224
-0.000221776921534911
-0.000244399649091065
-0.000252060504863039
-0.000254231446888298
-0.000252015219302848
-0.000253929349128157
-0.000266829330939799
-0.000256690487731248
-0.000253157428232953
-0.000238222550251521
-0.000245992239797488
-0.000231712270760909
-0.00022643999545835
-0.000226833726628683
-0.000243336558924057
-0.000243563670665026
-0.000242116846493445
-0.000231012265430763
-0.000227437150897458
-0.00021560194727499
-0.000206367345526814
-0.000192476567463018
-0.000194925451069139
-0.000201488102902658
-0.00019738168339245
-0.000206181110115722
-0.000211447608307935
-0.000220769055886194
-0.000222773669520393
-0.000231403260841034
-0.000230703066335991
-0.000232118691201322
-0.000233772254432552
-0.000236111154663376
-0.000240819586906582
-0.000245832983637229
-0.000260377622907981
-0.000258606596617028
-0.000251367746386677
-0.000255568913416937
-0.000258693267824128
-0.000267852679826319
-0.00025684735737741
-0.000243777147261426
-0.000243358284933492
-0.000240925510297529
-0.000235782281379215
-0.000240969122387469
-0.000241420057136565
-0.00025558119523339
-0.000251459627179429
-0.000252606783760712
-0.000243799804593436
-0.000246428098762408
-0.000230585719691589
-0.000225277341087349
-0.000223389361053705
-0.000226225092774257
-0.000213317049201578
-0.000195952117792331
-0.000184824311872944
-0.000166103403898887
-0.000165993056725711
-0.000160899522597901
-0.000169665509019978
-0.000172369385836646
-0.000188131598406471
-0.00019547923875507
-0.000209440113394521
-0.000217821361729875
-0.000237164422287606
-0.000258177809882909
-0.00025441701291129
-0.000256234052358195
-0.00026117276865989
-0.00025870674289763
-0.000247259740717709
-0.00023077821242623
-0.000223215989535674
-0.000234813283896074
-0.000231141108088195
-0.000231947211432271
-0.000232882535783574
-0.000241084286244586
-0.000247543415753171
-0.000242125417571515
-0.000236367122852243
-0.000239195884205401
-0.00024338296498172
-0.000229216137086041
-0.000242244423134252
-0.000241979694692418
-0.000239143308135681
-0.000218263812712394
-0.000214879692066461
-0.00021374667994678
-0.000219605150050484
-0.00021827376622241
-0.000216274536796845
-0.000221363850869238
-0.000218654662603512
-0.000219557841774076
-0.000216558517422527
-0.000222080343519337
-0.000214298663195223
-0.000216258136788383
-0.000219932204345241
-0.000228657037951052
-0.000226447693421505
-0.000216369822737761
-0.000215282314456999
-0.000210718470043503
-0.000220757487113588
-0.000229884622967802
-0.000249746692134067
-0.000258551415754482
-0.000256301136687398
-0.000248566153459251
-0.000248410506173968
-0.000240329201915301
-0.000235587664064951
-0.000228311109822243
-0.00023950707691256
-0.000246688316110522
-0.000243349655647762
-0.00023160150158219
-0.000226504140300676
-0.000229756304179318
-0.00020044410484843
-0.000193067171494477
-0.000196951979887672
-0.000205458520213142
-0.000198163019376807
-0.000197031869902276
-0.000203221599804237
-0.00020605229656212
-0.000203458766918629
-0.00021342012041714
-0.000217859225813299
-0.000219987719901837
-0.000223117327550426
-0.000229279845370911
-0.00023222247546073
-0.000222100352402776
-0.000221080699702725
-0.000210481928661466
-0.000212771847145632
-0.000204837488126941
-0.000227170225116424
-0.000232726524700411
-0.00024040495918598
-0.00024483902961947
-0.000247326766839251
-0.000255853869020939
-0.00025755402748473
-0.000239073313423432
-0.000237043816014193
-0.000238670341786928
-0.00021493504755199
-0.000205099888262339
-0.000194199805264361
-0.000196770357433706
-0.000184108037501574
-0.000182819436304271
-0.000185951081220992
-0.00019303074805066
-0.000197752699023113
-0.000193260246305727
-0.000208551937248558
-0.00021105156338308
-0.000223353243200108
-0.000222994334762916
-0.000218523273360915
-0.000215062027564272
-0.000230130681302398
-0.000235679355682805
-0.000227122931391932
-0.00022402431932278
-0.000213101928238757
-0.000218601257074624
-0.000210163329029456
-0.000218953500734642
-0.000215227250009775
-0.000225433555897325
-0.000225596319069155
-0.000231469093705527
-0.000227868629735894
-0.000226600866881199
-0.000237374202697538
-0.000248329510213807
-0.000249122822424397
-0.000254908634815365
-0.000256662984611467
-0.000247062707785517
-0.000240551205934025
-0.000238753491430543
-0.000235190076637082
-0.000236156483879313
-0.000236156018218026
-0.000230397650739178
-0.000239976594457403
-0.000237125277635641
-0.000238617998547852
-0.000238344015087932
-0.00023175185197033
-0.000224532268475741
-0.000209409117815085
-0.000201700517209247
-0.000194242020370439
-0.000203005372895859
-0.000196301058167592
-0.000190989128896035
-0.000193018888239749
-0.000206191049073823
-0.000218516361201182
-0.000239893022808246
-0.000238513515796512
-0.000234728897339664
-0.000240400724578649
-0.000247569434577599
-0.000247738498728722
-0.000238088148762472
-0.000241525762248784
-0.000229186625801958
-0.00021993946575094
-0.000215260937693529
-0.000214104074984789
-0.000215194944757968
-0.000215017076698132
-0.000207791032153182
-0.000221198337385431
-0.000238498483668081
-0.000238081775023602
-0.00022543128579855
-0.000226179341552779
-0.000240931287407875
-0.000235718980547972
-0.000244522001594305
-0.00022931324201636
-0.000220343295950443
-0.000208822239073925
-0.000207593111554161
-0.000209087549592368
-0.000198131499928422
-0.000192314109881409
-0.000191769097000361
-0.000203704214072786
-0.000199581292690709
-0.00021115131676197
-0.000202633382286876
-0.000205783057026565
-0.000202774986973964
-0.000213344173971564
-0.000212480154004879
-0.000225834475713782
-0.000233507409575395
-0.000248445256147534
-0.000260579807218164
-0.00026083376724273
-0.000261998851783574
-0.000254247424891218
-0.000251826306339353
-0.000248404598096386
-0.000251814897637814
-0.000241984438616782
-0.000253329228144139
-0.000257903418969363
-0.000253640144364908
-0.000255191524047404
-0.000257953332038596
-0.000252695841481909
-0.000250712386332452
-0.000231360230827704
-0.000219246256165206
-0.000220784451812506
-0.000214407686144113
-0.000212812359677628
-0.000216722604818642
-0.000227061420446262
-0.000221728842006996
-0.000222267844947055
-0.000215421969187446
-0.000201211412786506
-0.00019449889077805
-0.000183302603545599
-0.000184049116796814
-0.000183229087269865
-0.000193754836800508
-0.000190136750461534
-0.000198135094251484
-0.000204336116439663
-0.00021123603801243
-0.000210983242141083
-0.000213370964047499
-0.000213988634641282
-0.000212245868169703
-0.00021446865866892
-0.000221947921090759
-0.00022456374426838
-0.00022253068163991
-0.000234451799769886
-0.000239222819800489
-0.000258053914876655
-0.000257149746175855
-0.000264721544226632
-0.000259768567048013
-0.00025887371157296
-0.000244924915023148
-0.000243865069933236
-0.000239196655456908
-0.00022710817574989
-0.000207842807867564
-0.000192571882507764
-0.000193207830307074
-0.000188387522939593
-0.000190629303688183
-0.000188720252481289
-0.000207828124985099
-0.000214223400689661
-0.000223849550820887
-0.00022016279399395
-0.000226034651859663
-0.000228609540499747
-0.00021887436741963
-0.000216941320104524
-0.000225650306674652
-0.000235057697864249
-0.000221476322622038
-0.000218318105908111
-0.000215660969843157
-0.000223814320634119
-0.000219274603296071
-0.000232524049351923
-0.000232207676162943
-0.000243297821725719
-0.000252347585046664
-0.000262797286268324
-0.000269618787569925
-0.000264380738371983
-0.000262642308371142
-0.00025625986745581
-0.000261355860857293
-0.000249001197516918
-0.000252112309681252
-0.000233789964113384
-0.000222372385906056
-0.000211357313673943
-0.000221081834752113
-0.000229743483942002
-0.000227679323870689
-0.000224248797167093
-0.000226797899813391
-0.000237163651036099
-0.000244382477831095
-0.000247886724537238
-0.000239299537497573
-0.000240320267039351
-0.000232634149142541
-0.000224049770622514
-0.000224210962187499
-0.000226630247198045
-0.000210069352760911
-0.00019418346346356
-0.000198700683540665
-0.000206369179068133
-0.00020766316447407
-0.000207521283300593
-0.000217235705349594
-0.000228979537496343
-0.000246040261117741
-0.000253710808465257
-0.00025317762629129
-0.000239750705077313
-0.000240966503042728
-0.000229625453357585
-0.000219300913158804
-0.000215441003092565
-0.000212187122087926
-0.000199664907995611
-0.000188339923624881
-0.000193989384570159
-0.000204650568775833
-0.000214542727917433
-0.000209899299079552
-0.000214162297197618
-0.000211790698813274
-0.000223193797864951
-0.000223288385313936
-0.00022877256560605
-0.000231706711929291
-0.000241995890974067
-0.000249939679633826
-0.000249663484282792
-0.000246173382038251
-0.000236783263972029
-0.000241134926909581
-0.000227919445023872
-0.000222126836888492
-0.000222205519094132
-0.00022864509082865
-0.000218218541704118
-0.000221551192225888
-0.000237673928495496
-0.000248008087510243
-0.000244081325945444
-0.000236472886172123
-0.000228576522204094
-0.000219724126509391
-0.00022069776605349
-0.000205473115784116
-0.000198618858121336
-0.000177729860297404
-0.000174753658939153
-0.000175310589838773
-0.000175029927049764
-0.000184516509762034
-0.000189922575373203
-0.000197888177353889
-0.000204260868486017
-0.000217253691516817
-0.000235049650655128
-0.000249069300480187
-0.000247866177232936
-0.000255360326264054
-0.000238980413996614
-0.000241484958678484
-0.000242004796746187
-0.000231593920034356
-0.000221139765926637
-0.000221271606278606
-0.00023230179795064
-0.00023108726600185
-0.000229192257393151
-0.000226681149797514
-0.000238529843045399
-0.000241615809500217
-0.000242984009673819
-0.000237424304941669
-0.000231220401474275
-0.000227681201067753
-0.000212070357520133
-0.000208933386602439
-0.000209581601666287
-0.000212705446756445
-0.000210662023164332
-0.000207631092052907
-0.000208348268643022
-0.000220616362639703
-0.000223936673137359
-0.000237694679526612
-0.000234371575061232
-0.000242851485381834
-0.000235481056733988
-0.000238805165281519
-0.000237858504988253
-0.000225955329369754
-0.000222484755795449
-0.000221436639549211
-0.000224496718146838
-0.000217508524656296
-0.000214607032830827
-0.000207257922738791
-0.000193239073269069
-0.00018829335749615
-0.000190096761798486
-0.000189607409993187
-0.000208804514841177
-0.000216859116335399
-0.000226026706513949
-0.000237197265960276
-0.000247313728323206
-0.000257844192674384
-0.000247278454480693
-0.000246436306042597
-0.000239236745983362
-0.000234235514653847
-0.000235656843869947
-0.000238571054069325
-0.000228564167628065
-0.000222057467908598
-0.000223343740799464
-0.000227028343942948
-0.000232856662478298
-0.000214775500353426
-0.000213308987440541
-0.000224314164370298
-0.000239151762798428
-0.000238660300965421
-0.000241443907725625
-0.00023259173030965
-0.00023545570729766
-0.000231437574257143
-0.000230535995797254
-0.000228924807743169
-0.000216687694774009
-0.000208720477530733
-0.000192316656466574
-0.000182137489900924
-0.000171035091625526
-0.000180163944605738
-0.000191632207133807
-0.000213301289477386
-0.00022022430493962
-0.000238336404436268
-0.000240820663748309
-0.000242483045440167
-0.000239365428569727
-0.000234116203500889
-0.00023157887335401
-0.000223622235353105
-0.000224869538214989
-0.000226899908739142
-0.000232444246648811
-0.000231713129323907
-0.00024123748880811
-0.000231742160394788
-0.000229265919188037
-0.000229623343329877
-0.000220758665818721
-0.000217230830457993
-0.000228868128033355
-0.000239920540479943
-0.000249131175223738
-0.000244133756496012
-0.000233575017773546
-0.000225693089305423
-0.000218953791772947
-0.000220166664803401
-0.000212207742151804
-0.000224053292185999
-0.000228689415962435
-0.000234241801081225
-0.000225673706154339
-0.000228529213927686
-0.00022486581292469
-0.000226507923798636
-0.000237782238400541
-0.000249819800956175
-0.000257730425801128
-0.000249219650868326
-0.000245667877607048
-0.000232295889873058
-0.000234857652685605
-0.000231711979722604
-0.000234617327805608
-0.000222891860175878
-0.000220904083107598
-0.000224655115744099
-0.000223398819798604
-0.000223665832891129
-0.000216830696444958
-0.000215840118471533
-0.000216840082430281
-0.000211398728424683
-0.000212010709219612
-0.000223984054173343
-0.000219323541386984
-0.000211931299418211
-0.000212800310691819
-0.00021949656365905
-0.000211890481295995
-0.000200842157937586
-0.000188699836144224
-0.000189690617844462
-0.000201513466890901
-0.000198236564756371
-0.000220171627006493
-0.000220899542910047
-0.000238151827943511
-0.000239783432334661
-0.000260915927356109
-0.000266498682321981
-0.00025803258176893
-0.000259557389654219
-0.000253656937275082
-0.000251404853770509
-0.000248739001108334
-0.000250451877946034
-0.000232255988521501
-0.000225787705858238
-0.000213443461689167
-0.000221147478441708
-0.000211268968996592
-0.00021696746989619
-0.000214918065466918
-0.000213803607039154
-0.000209619378438219
-0.000216386441024952
-0.000216562897549011
-0.000204451789613813
-0.000208406752790324
-0.000200777460122481
-0.000208756202482618
-0.000209125020774081
-0.000221642461838201
-0.000211589795071632
-0.000207560369744897
-0.000205356336664408
-0.000225708281504922
-0.000241671965341084
-0.000254543469054624
-0.00026311181136407
-0.000259221502346918
-0.000264862668700516
-0.000257023581070825
-0.000257860607234761
-0.000250436482019722
-0.000249678210821003
-0.000247451069299132
-0.000256673898547888
-0.000248040858423337
-0.000236565349041484
-0.000221549445996061
-0.000207516190130264
-0.000217525215703063
-0.000228527642320842
-0.00023316552687902
-0.000221910129766911
-0.000220281202928163
-0.000221614085603505
-0.000230251069297083
-0.000225773386773653
-0.000233419268624857
-0.000220175134018063
-0.00022294202062767
-0.000208701560040936
-0.000207826946279965
-0.000208509940421209
-0.000200358568690717
-0.000205942429602146
-0.000209277524845675
-0.000220047048060223
-0.000219982423004694
-0.000239439395954832
-0.000244638533331454
-0.000237898231716827
-0.000242599053308368
-0.000247981282882392
-0.000249442062340677
-0.000251442310400307
-0.000239976332522929
-0.000240232737269252
-0.00024808564921841
-0.00023403821978718
-0.00024261734506581
-0.000224752962822095
-0.000222591945203021
-0.000213733481359668
-0.00021997804287821
-0.000214300205698237
-0.000217266715480946
-0.000217680164496414
-0.00021316044148989
-0.000212482307688333
-0.000221686917939223
-0.000227821466978639
-0.000225345298531465
-0.000226415882934816
-0.000222373273572884
-0.000216959277167916
-0.000208668556297198
-0.000207922363188118
-0.000208560479222797
-0.000215722480788827
-0.000222681905142963
-0.000226724790991284
-0.000226963107706979
-0.000234639213886112
-0.00023450241133105
-0.000234107908909209
-0.000233007056522183
-0.000220677015022375
-0.000216501503018662
-0.000204222174943425
-0.00019836011051666
-0.000187445635674521
-0.000193971063708887
-0.000184173608431593
-0.000186515695531852
-0.00018584041390568
-0.000195261920453049
-0.000211396240047179
-0.000222854330786504
-0.00023494461493101
-0.000230408040806651
-0.000239903456531465
-0.000240353052504361
-0.000253944454016164
-0.000268532428890467
-0.000276475795544684
-0.000270617543719709
-0.00026975420769304
-0.000264623871771619
-0.000255466729868203
-0.000244898750679567
-0.000233054655836895
-0.000228969773161225
-0.000226527481572702
-0.000238843553233892
-0.00023164956655819
-0.000243100250372663
-0.000236598425544798
-0.000234094710322097
-0.00023604444868397
-0.000228768069064245
-0.000214311221498065
-0.000204772062716074
-0.000193014479009435
-0.000177734036697075
-0.000169710896443576
-0.00017228008073289
-0.000175441848114133
-0.000178714442881755
-0.000176020126673393
-0.000195163869648241
-0.000217551802052185
-0.000224238028749824
-0.00022437542793341
-0.000227784519665874
-0.000231609548791312
-0.000243052360019647
-0.000240808658418246
-0.000247359101194888
-0.000252758502028882
-0.000261176930507645
-0.00025251557235606
-0.000262701301835477
-0.000251895864494145
-0.000248122669290751
-0.00023327098460868
-0.000225365467485972
-0.000220941670704633
-0.000211921200389042
-0.00023130104818847
-0.000221933674765751
-0.000215908672544174
-0.000215113584999926
-0.000223754934268072
-0.000219768015085719
-0.000223869399633259
-0.000204880052478984
-0.000197392771951854
-0.000179791240952909
-0.000184425065526739
-0.000188241523574106
-0.000191629776963964
-0.000201350543648004
-0.000212685481528752
-0.000238214473938569
-0.000253547070315108
-0.000255955616012216
-0.000246267329202965
-0.000238397769862786
-0.000241744623053819
-0.000259305932559073
-0.000257481035077944
-0.000258852611295879
-0.000244735012529418
-0.000242100650211796
-0.000234541672398336
-0.000226470350753516
-0.000219382010982372
-0.000213617662666365
-0.000212238286621869
-0.000214764339034446
-0.000226404226850718
-0.000228149714530446
-0.000227388605708256
-0.000220614849240519
-0.000207515797228552
-0.000214783227420412
-0.000215522799408063
-0.000207113349460997
-0.00020074586791452
-0.000208783618290909
-0.000214672676520422
-0.000206963755772449
-0.000196718698134646
-0.000204551717615686
-0.000195078653632663
-0.000214054642128758
-0.000217115113628097
-0.000236370484344661
-0.000245920848101377
-0.000240381734329276
-0.000241260000620969
-0.000236745181609876
-0.000243176487856545
-0.000254648621194065
-0.000254079117439687
-0.000245824514422566
-0.000242198468185961
-0.000238820342929102
-0.000244186230702326
-0.000234675826504826
-0.000219410634599626
-0.000204443640541285
-0.000209524790989235
-0.000196827168110758
-0.000191602230188437
-0.000203424555365927
-0.000195475397049449
-0.000213146689929999
-0.000211441016290337
-0.000231266050832346
-0.000232843944104388
-0.000241102112340741
-0.000235422587138601
-0.000226669260882772
-0.000217620705370791
-0.000224977862671949
-0.000227485419600271
-0.000227976925089024
-0.000228886114200577
-0.00023818931367714
-0.000260635715676472
-0.000250874145422131
-0.000256332976277918
-0.000232817168580368
-0.000232214864809066
-0.000219417328480631
-0.000223709343117662
-0.00022108040866442
-0.000221913462155499
-0.0002164134348277
-0.000216342217754573
-0.000209014164283872
-0.0002041607076535
-0.000208014142117463
-0.000207927107112482
-0.000198979018023238
-0.000197687186300754
-0.000219083041884005
-0.000215765365283005
-0.000216278480365872
-0.000208908604690805
-0.000221524722292088
-0.000231923084356822
-0.000231977348448709
-0.000231941521633416
-0.000232524194871075
-0.000231443555094302
-0.000223751412704587
-0.000225112147745676
-0.000222319184103981
-0.000216713451663963
-0.000201232702238485
-0.000209454519790597
-0.00022483327484224
-0.000242723210249096
-0.000247595016844571
-0.000251553807174787
-0.0002502400893718
-0.000256052968325093
-0.000259890453889966
-0.00025280870613642
-0.000249539909418672
-0.000235850078752264
-0.000234165549045429
-0.00022678253299091
-0.000226655480219051
-0.000215588879655115
-0.000213032923056744
-0.000212904924410395
-0.000197878951439634
-0.000202440176508389
-0.000209718768019229
-0.000217107444768771
-0.000216276166611351
-0.000226931617362425
-0.000236832871451043
-0.000243705580942333
-0.000237813947023824
-0.000251451245276257
-0.000254648766713217
-0.000250283192144707
-0.000239668326685205
-0.000236211431911215
-0.000234599094255827
-0.000228072312893346
-0.000231991754844785
-0.000232479884289205
-0.000244606839260086
-0.000247544492594898
-0.000241701811319217
-0.000233349535847083
-0.000232295875321142
-0.000224421179154888
-0.00021533781546168
-0.000208886587643065
-0.000199385991436429
-0.000191393613931723
-0.000185229742783122
-0.000193912870599888
-0.000192745457752608
-0.000200263035367243
-0.000190969789400697
-0.000197997433133423
-0.000188038407941349
-0.000194884269149043
-0.000191000974155031
-0.000194790292880498
-0.000202366223675199
-0.000217042164877057
-0.000227688215090893
-0.000226516393013299
-0.000234263483434915
-0.000232694641454145
-0.000238172331592068
-0.000235720974160358
-0.000259423162788153
-0.000266665010713041
-0.000261377485003322
-0.000249296863330528
-0.000255145598202944
-0.000261569104623049
-0.000256622792221606
-0.000252933270530775
-0.000242982248892076
-0.000240049659623764
-0.000235571555094793
-0.000240485969698057
-0.000237395608564839
-0.0002416016504867
-0.000222015936742537
-0.000210688056540675
-0.000193939587916247
-0.000190205842955038
-0.000174072178197093
-0.000179135269718245
-0.000177912224899046
-0.000174390544998459
-0.000187344383448362
-0.000198652589460835
-0.000218437911826186
-0.000213231178349815
-0.00022594424081035
-0.000233301296248101
-0.000245847768383101
-0.000246733980020508
-0.000241198067669757
-0.000241642483160831
-0.000237630782066844
-0.000237642379943281
-0.000236939347814769
-0.000239833447267301
-0.000241980189457536
-0.000247861724346876
-0.000255332124652341
-0.000269056705292314
-0.000252736528636888
-0.000253727717790753
-0.000245565228397027
-0.00024089400540106
-0.000232985679758713
-0.000230376128456555
-0.000224775591050275
-0.00022422763868235
-0.000229659082833677
-0.000212111044675112
-0.000214955085539259
-0.000216481246752664
-0.000214108862564899
-0.000205921824090183
-0.000206582655664533
-0.00020343650248833
-0.00021411340276245
-0.000205606746021658
-0.000219619265408255
-0.000222109607420862
-0.000223177994485013
-0.00022920238552615
-0.000227388634812087
-0.000237416301388293
-0.000237137515796348
-0.000256770348642021
-0.00025009602541104
-0.000240521447267383
-0.000227992641157471
-0.00022232299670577
-0.000208155586733483
-0.000214308325666934
-0.000217235530726612
-0.000229980840231292
-0.000230903504416346
-0.000231252110097557
-0.000226892268983647
-0.000220191475818865
-0.000224001312744804
-0.000216046391869895
-0.000222821880015545
-0.00021197296155151
-0.000221331662032753
-0.000223206414375454
-0.000222951508476399
-0.00022103323135525
-0.000217812455957755
-0.000221821115701459
-0.000217391992919147
-0.000236259729717858
-0.000248241820372641
-0.000267816561972722
-0.000270165939582512
-0.000262130575720221
-0.000258572894381359
-0.000261672947090119
-0.000246374198468402
-0.000238954700762406
-0.000228837641770951
-0.000209808422368951
-0.000198134148376994
-0.000185005104867741
-0.000182673960807733
-0.000176222805748694
-0.00019101970246993
-0.000187807949259877
-0.000205989883397706
-0.000205056596314534
-0.000205945078050718
-0.000209772057132795
-0.00021835723600816
-0.000227875512791797
-0.000243165122810751
-0.000242793001234531
-0.000240409121033736
-0.000226717791520059
-0.000235746541875415
-0.000247890711762011
-0.000244794617174193
-0.000247952295467257
-0.000248021126026288
-0.000256700528552756
-0.000259273510891944
-0.000265290756942704
-0.000273611454758793
-0.000277449289569631
-0.000275087513728067
-0.000263136374996975
-0.000253581849392503
-0.000245135423028842
-0.000238821987295523
-0.000217129942029715
-0.000204872660106048
-0.000208225421374664
-0.000217014239751734
-0.000205426738830283
-0.000206737968255766
-0.00020876714552287
-0.00021675783500541
-0.00021411465422716
-0.000206591867026873
-0.000203139061341062
-0.000189849990420044
-0.000202224488020875
-0.000213333507417701
-0.000221623908146284
-0.000214466665056534
-0.000219705994823016
-0.000212012528209016
-0.000200840993784368
-0.00020571643835865
-0.000223396476940252
-0.000234540260862559
-0.000232486374443397
-0.000232798818615265
-0.000236671578022651
-0.000252406753133982
-0.000254269078141078
-0.000263079244177788
-0.000254826998570934
-0.00025612159515731
-0.000248456082772464
-0.000245665753027424
-0.000246479990892112
-0.000241502624703571
-0.000232054968364537
-0.00022271741181612
-0.000228779506869614
-0.000219287918298505
-0.000215054038562812
-0.000206718235858716
-0.000202263603569008
-0.000200854323338717
-0.000213586798054166
-0.000207345117814839
-0.000209195262868889
-0.000205682052182965
-0.000213297840673476
-0.000215185078559443
-0.000226657604798675
-0.000240837180172093
-0.000248183932853863
-0.000251061021117493
-0.000252075435128063
-0.000256709201494232
-0.00023895721824374
-0.000239378176047467
-0.000234952982282266
-0.000223297553020529
-0.00022125021496322
-0.000222239439608529
-0.000222443617531098
-0.000223907743929885
-0.00022400553280022
-0.000226897638640366
-0.000228780685574748
-0.000217544788029045
-0.000226652351557277
-0.00020883118850179
-0.000202693045139313
-0.000186727949767374
-0.000195847314898856
-0.000197471992578358
-0.000199157322640531
-0.000214531901292503
-0.000206801341846585
-0.000212737388210371
-0.000223909635678865
-0.000219546025618911
-0.00022055565204937
-0.000228619683184661
-0.000238062988501042
-0.000249853037530556
-0.000243880858761258
-0.000239946108194999
-0.000227243232075125
-0.000223574475967325
-0.000224927338422276
-0.000222565649892203
-0.000230273130000569
-0.000230005985940807
-0.00023780380433891
-0.000234792401897721
-0.000243714704993181
-0.000239631175645627
-0.00025225174613297
-0.000254398590186611
-0.000251150690019131
-0.000237903848756105
-0.000250516517553478
-0.000243675880483352
-0.000234924344113097
-0.000226629679673351
-0.000214030675124377
-0.000206249329494312
-0.000203499992494471
-0.000203746953047812
-0.000195133470697328
-0.000211692371522076
-0.000209779274882749
-0.000223893206566572
-0.000229907120228745
-0.000238189240917563
-0.000247248623054475
-0.0002505051670596
-0.000256817496847361
-0.000264917587628588
-0.000260442961007357
-0.000248035037657246
-0.000245286151766777
-0.000233437865972519
-0.000222905771806836
-0.000202996263396926
-0.000207182296435349
-0.000202162103960291
-0.000209598234505393
-0.000212451777770184
-0.000218395463889465
-0.000231403115321882
-0.000231448124395683
-0.00024211622076109
-0.000233052458497696
-0.000225399431656115
-0.000222831484279595
-0.000223297742195427
-0.000215846404898912
-0.000211323145776987
-0.000204307449166663
-0.000207525037694722
-0.000199943868210539
-0.000203594419872388
-0.000199775255168788
-0.000198457491933368
-0.000212688348256051
-0.000212394719710574
-0.000224357849219814
-0.000223368260776624
-0.000237755666603334
-0.000237487372942269
-0.00024432034115307
-0.000243892645812593
-0.000247887102887034
-0.000242281384998932
-0.000234737672144547
-0.000232401842367835
-0.000228986260481179
-0.000225094801862724
-0.000231974700000137
-0.00023243625764735
-0.00023195675748866
-0.000237841217312962
-0.000223719922360033
-0.000226814954658039
-0.00021241903596092
-0.000216571788769215
-0.000226445990847424
-0.000226169286179356
-0.000228576303925365
-0.000225138035602868
-0.000218777116970159
-0.000208753364859149
-0.000215818436117843
-0.000205979871680029
-0.000215080857742578
-0.000216260814340785
-0.000237818065215833
-0.000238755776081234
-0.000243012080318294
-0.000245168514084071
-0.000242722366238013
-0.000243727175984532
-0.000248865399044007
-0.000256306957453489
-0.000266927963821217
-0.000264156522462144
-0.000245019269641489
-0.000244727911194786
-0.000227774522500113
-0.000227535463636741
-0.000227079377509654
-0.000228296921704896
-0.000217548120417632
-0.000213483741390519
-0.000210528436582535
-0.00021290997392498
-0.000208463388844393
-0.000207220509764738
-0.000201144270249642
-0.000204482377739623
-0.000209313540835865
-0.000205551201361231
-0.000216083470149897
-0.000218157438212074
-0.000225978394155391
-0.000225124385906383
-0.000230689751333557
-0.000227283802814782
-0.000226540098083205
-0.000230202480452135
-0.000224384217290208
-0.000234394741710275
-0.000238300664932467
-0.000243736620177515
-0.000247921940172091
-0.000259161868598312
-0.000255887425737455
-0.000260667322436348
-0.000245941249886528
-0.000245817383984104
-0.000227096883463673
-0.00022213083866518
-0.000218022862100042
-0.000214736253838055
-0.00020586462051142
-0.000194457985344343
-0.000199435235117562
-0.000193689280422404
-0.000201487535377964
-0.000208200595807284
-0.000211970880627632
-0.000222995746298693
-0.000234867809922434
-0.000242321722907945
-0.000247152638621628
-0.000242906768107787
-0.000241272762650624
-0.000230810939683579
-0.000218610963202082
-0.000214937055716291
-0.000205327916773967
-0.000215306092286482
-0.000220846981392242
-0.000235394123592414
-0.000238916996750049
-0.000245820730924606
-0.00025779556017369
-0.00026459080982022
-0.000260198954492807
-0.000261872133705765
-0.000266023416770622
-0.000264186528511345
-0.000265497306827456
-0.000252573838224634
-0.000248844909947366
-0.000237739193835296
-0.000228561519179493
-0.000209527934202924
-0.00018800696125254
-0.000165595294674859
-0.000178250586031936
-0.000189158628927544
-0.000203745046746917
-0.000211296443012543
-0.000224138115299866
-0.000233715065405704
-0.000231500671361573
-0.000239695786149241
-0.000229847937589511
-0.000235691943089478
-0.000224102535867132
-0.000219807814573869
-0.00021894701058045
-0.000219628855120391
-0.000224484232603572
-0.000235204730415717
-0.000243441259954125
-0.000232257341849618
-0.000239462126046419
-0.000235762185184285
-0.000232767401030287
-0.000232758800848387
-0.000227193668251857
-0.000225332769332454
-0.000236073261476122
-0.000241238056332804
-0.000240151901380159
-0.000239830929785967
-0.000237577100051567
-0.00023783725919202
-0.000233954473515041
-0.000238077147514559
-0.000233564656809904
-0.000228738688747399
-0.000219423265662044
-0.000230238496442325
-0.000219594890950248
-0.000223963230382651
-0.000215980340726674
-0.000215012696571648
-0.000225350027903914
-0.000217594832065515
-0.000205053656827658
-0.000198808585992083
-0.000207654520636424
-0.000200424867216498
-0.000198900641407818
-0.000196382694412023
-0.000209514968446456
-0.000218994726310484
-0.000226611431571655
-0.000226723059313372
-0.000236929772654548
-0.000245615054154769
-0.000243102724198252
-0.000247177464189008
-0.000252431840635836
-0.000244083988945931
-0.000235020896070637
-0.000234649167396128
-0.000224572082515806
-0.000219732624827884
-0.000208203273359686
-0.000214727551792748
-0.000219353954889812
-0.000219310124521144
-0.000224837931455113
-0.000221876907744445
-0.000236600812058896
-0.000243565969867632
-0.000255597231443971
-0.000261741981375962
-0.000253345002420247
-0.00024911409127526
-0.000265243026660755
-0.000255657301750034
-0.000257809937465936
-0.000248903554165736
-0.000245641684159636
-0.000233846658375114
-0.000231227968470193
-0.000242264883127064
-0.000246493553277105
-0.000244526396272704
-0.000244757684413344
-0.000236159525229596
-0.000221469366806559
-0.000224966875975952
-0.000203959119971842
-0.000208394325454719
-0.000210731057450175
-0.000209258214454167
-0.000203510222490877
-0.00019222307309974
-0.000187935132998973
-0.000184439559234306
-0.000183964482857846
-0.000181141745997593
-0.000187088808161206
-0.000184356875251979
-0.00019954628078267
-0.000210505706490949
-0.000217121996684
-0.000232007296290249
-0.000244778522755951
-0.000248779600951821
-0.000249749864451587
-0.000250201410381123
-0.000253997801337391
-0.000258352636592463
-0.000248248077696189
-0.000250045326538384
-0.00023871153825894
-0.000225683994358405
-0.000223803755943663
-0.000236182531807572
-0.000229048397159204
-0.000227062380872667
-0.000217191511183046
-0.000214179017348215
-0.000212032275157981
-0.000219920766539872
-0.000239388085901737
-0.000237017287872732
-0.00023797586618457
-0.000243453090661205
-0.000239246423006989
-0.000224654082558118
-0.000210378871997818
-0.00019741035066545
-0.000208991637919098
-0.000199643254745752
-0.000200114867766388
-0.000214465617318638
-0.000224763934966177
-0.000235635525314137
-0.000243773829424754
-0.000264041154878214
-0.000266234594164416
-0.000278201914625242
-0.000271608674665913
-0.000265943293925375
-0.000251813034992665
-0.000249757984420285
-0.000237493673921563
-0.000225744472118095
-0.000218410015804693
-0.000220395289943553
-0.00022636198264081
-0.000232963982853107
-0.000235535015235655
-0.000229849218158051
-0.000230473335250281
-0.00022319114941638
-0.000224696486839093
-0.000209680511034094
-0.00021060933067929
-0.000209466903470457
-0.000209243531571701
-0.000206112919840962
-0.000203483185032383
-0.000201521164854057
-0.00019271565543022
-0.000193494211998768
-0.000202682203962468
-0.000215621097595431
-0.000210970596526749
-0.000217705965042114
-0.000230353645747527
-0.000245510687818751
-0.000253189267823473
-0.000251292047323659
-0.000239808228798211
-0.000243157119257376
-0.000241920992266387
-0.000240288369241171
-0.000239220273215324
-0.000221515612793155
-0.000225021940423176
-0.000220100657315925
-0.000214509913348593
-0.000218223736737855
-0.000228282951866277
-0.000233762664720416
-0.000227858370635658
-0.000233107610256411
-0.000227399257710203
-0.000229176337597892
-0.000224310322664678
-0.000218372428207658
-0.000211255974136293
-0.000213763152714819
-0.000209255740628578
-0.000218806715565734
-0.00021339941304177
-0.000219363777432591
-0.000219324239878915
-0.000212893020943738
-0.000218247907469049
-0.000215441716136411
-0.00022586305567529
-0.000228826786042191
-0.000246641575358808
-0.000261254142969847
-0.000275455240625888
-0.000263305642874911
-0.000248551514232531
-0.000241263333009556
-0.00024676084285602
-0.000227553508011624
-0.000229187950026244
-0.000223899201955646
-0.00021835598454345
-0.000215375097468495
-0.000201875664060935
-0.000204736599698663
-0.00020507896260824
-0.000201667338842526
-0.000195455853827298
-0.000200591530301608
-0.000204277806915343
-0.000223320530494675
-0.000228241638978943
-0.000236773819779046
-0.000237184212892316
-0.000239496861468069
-0.000232214923016727
-0.000231410711421631
-0.000233097191085108
-0.000223824710701592
-0.000230152072617784
-0.000220632035052404
-0.000234598875977099
-0.000225758587475866
-0.000233923303312622
-0.000236020059674047
-0.00024855462834239
-0.000258375832345337
-0.000261719600530341
-0.000259541848208755
-0.000241411806200631
-0.000236222855164669
-0.000231313388212584
-0.000225925134145655
-0.00021091615781188
-0.000201724164071493
-0.000193977204617113
-0.000209236692171544
-0.000215740117710084
-0.000221628652070649
-0.000222443864913657
-0.000224226343561895
-0.000231649726629257
-0.000245634961174801
-0.000243011338170618
-0.000243524918914773
-0.000235013430938125
-0.00022014910064172
-0.000217377819353715
-0.000224887888180092
-0.000235910745686851
-0.000237404252402484
-0.000239601809880696
-0.000248953583650291
-0.000259210442891344
-0.000251106859650463
-0.000243613758357242
-0.000249888573307544
-0.000247974589001387
-0.000259170978097245
-0.000254012062214315
-0.000254295358899981
-0.000249125470872968
-0.000255436694715172
-0.000243371425312944
-0.000241289686528034
-0.000226807591388933
-0.000213123959838413
-0.000211039267014712
-0.000200550290173851
-0.000202787385205738
-0.000210995945963077
-0.000223565089982003
-0.000214404077269137
-0.000201228147489019
-0.000200326991034672
-0.00021983559418004
-0.000218589761061594
-0.000232677310123108
-0.000242418595007621
-0.000253938604146242
-0.000256104540312663
-0.000242988753598183
-0.000231086203712039
-0.000223014125367626
-0.000208964760531671
-0.000187320547411218
-0.000192141043953597
-0.000191515893675387
-0.000205020565772429
-0.000214004219742492
-0.000228329154197127
-0.000243120375671424
-0.000259027612628415
-0.000264266127487645
-0.000258171203313395
-0.000252208090387285
-0.000247841904638335
-0.000248867931077257
-0.000241355781327002
-0.000241140543948859
-0.000229572993703187
-0.000231681508012116
-0.000217465669265948
-0.000211906983167864
-0.000214333878830075
-0.000215283638681285
-0.000213404564419761
-0.000212256447412074
-0.000212178711080924
-0.000216464686673135
-0.000226942414883524
-0.000230876685236581
-0.000226705291424878
-0.000227427124627866
-0.000236979307373986
-0.00022480713960249
-0.000222721326281317
-0.000200974172912538
-0.000202990282559767
-0.000201965376618318
-0.000208819430554286
-0.000224696748773567
-0.000220492933294736
-0.000220844623981975
-0.000221836293349042
-0.000244831957388669
-0.000252662401180714
-0.000260636792518198
-0.000258332031080499
-0.000253210222581402
-0.000252585450652987
-0.000262562389252707
-0.000260109576629475
-0.000248794560320675
-0.000244320166530088
-0.000231237427215092
-0.000227661294047721
-0.000220687783439644
-0.000234447361435741
-0.000232677542953752
-0.000242652487941086
-0.000238558379351161
-0.000238446824369021
-0.000241811736486852
-0.000238280248595402
-0.000238789638387971
-0.00023681836319156
-0.000219057779759169
-0.000215569554711692
-0.000206657190574333
-0.00019351537048351
-0.000182444506208412
-0.000180248913238756
-0.000189037367817946
-0.000188647492905147
-0.000196109191165306
-0.000188405916560441
-0.000200240217964165
-0.000203605464776047
-0.000213414823519997
-0.000225419353228062
-0.000224009621888399
-0.000233718223171309
-0.00023793670698069
-0.000245874951360747
-0.000255441467743367
-0.000260571512626484
-0.000252171710599214
-0.000233786267926916
-0.000221922775381245
-0.000221200156374834
-0.000225065188715234
-0.000229840952670202
-0.000238459062529728
-0.000246368872467428
-0.000251982564805076
-0.000255910184932873
-0.000263625144725665
-0.000266127084614709
-0.00026285694912076
-0.000245196803007275
-0.000239456567214802
-0.000220013651414774
-0.000215758453123271
-0.000203927425900474
-0.000195808766875416
-0.000183469514013268
-0.000181376613909379
-0.000184272066690028
-0.000188933234312572
-0.000191712126252241
-0.000208169309189543
-0.00023705221246928
-0.000236105188378133
-0.000243358808802441
-0.000238279622863047
-0.000249782489845529
-0.000246098614297807
-0.000248048803769052
-0.000249744247412309
-0.000241217509028502
-0.000227784068556502
-0.000212340062716976
-0.000220034780795686
-0.000228573204367422
-0.000237457687035203
-0.000242467751377262
-0.000247869465965778
-0.000249336095293984
-0.000252414669375867
-0.00025139027275145
-0.000245475326664746
-0.000234686754993163
-0.000229574681725353
-0.000238481079577468
-0.000227487500524148
-0.000226151634706184
-0.000223944589379244
-0.000229859433602542
-0.000218722081626765
-0.000220627029193565
-0.000215876934817061
-0.000223025926970877
-0.000213786246604286
-0.000206068041734397
-0.000210101032280363
-0.000224665825953707
-0.000229529439820908
-0.000221141614019871
-0.000224650779273361
-0.000225344527279958
-0.000235071813222021
-0.000225370560656302
-0.000216850326978601
-0.000202700466616079
-0.000200993599719368
-0.000202662296942435
-0.000203983814571984
-0.000206052922294475
-0.000204314739676192
-0.000206789758522063
-0.000199703339603729
-0.000212374579859897
-0.000228951495955698
-0.000232722086366266
-0.000239928544033319
-0.000235030616750009
-0.000231471145525575
-0.000239983652136289
-0.000247880729148164
-0.000240679612034
-0.000234910781728104
-0.000240410037804395
-0.000245365896262228
-0.000239045155467465
-0.000239073226111941
-0.000228609846089967
-0.00022391602396965
-0.00022349639039021
-0.00022455130238086
-0.000209992766031064
-0.000220796166104265
-0.000222314469283447
-0.000222196627873927
-0.000223391514737159
-0.000226402000407688
-0.0002174966793973
-0.000205291173188016
-0.000193512270925567
-0.000187412515515462
-0.000197942557861097
-0.000199299407540821
-0.000211038452107459
-0.000210205136681907
-0.00022587992134504
-0.000219125344301574
-0.000226627351366915
-0.000241809320868924
-0.000254819227848202
-0.000251414399826899
-0.000246910843998194
-0.000246402370976284
-0.000243426795350388
-0.00024359897361137
-0.000235570216318592
-0.000236420804867521
-0.000242842463194393
-0.000245642906520516
-0.000249378179432824
-0.000253163801971823
-0.00024384813150391
-0.000256486964644864
-0.000264720350969583
-0.000263101741438732
-0.000259031978202984
-0.000250497134402394
-0.000249070639256388
-0.00022707981406711
-0.000214566811337136
-0.000193989893887192
-0.00018714668112807
-0.000182674528332427
-0.000179978538653813
-0.000186805307748728
-0.000210896338103339
-0.000210685117053799
-0.000208437268156558
-0.000203678151592612
-0.000204275813302956
-0.000210308760870248
-0.000212114580790512
-0.000216723798075691
-0.000224643838009797
-0.000232078717090189
-0.000228395889280364
-0.000231682090088725
-0.000232824007980525
-0.000239658722421154
-0.000232792110182345
-0.000226234493311495
-0.000231341051403433
-0.000241739850025624
-0.000256144237937406
-0.00025327256298624
-0.000260472646914423
-0.000261465087532997
-0.000265608978224918
-0.000243146452703513
-0.000245382514549419
-0.000238776032347232
-0.000241124056628905
-0.000245021976297721
-0.000236938765738159
-0.000226921605644748
-0.000214943560422398
-0.000210125057492405
-0.000194166656001471
-0.000198480382096022
-0.000203408388188109
-0.000221314519876614
-0.000216118904063478
-0.000214141648029908
-0.00022177177015692
-0.000238653825363144
-0.000248952856054529
-0.000246868701651692
-0.000242881767917424
-0.000248744792770594
-0.000245003087911755
-0.000237887972616591
-0.000241180488956161
-0.000223115828703158
-0.000225656302063726
-0.000220143658225425
-0.00021727874991484
-0.000218336062971502
-0.000223863491555676
-0.000214863088331185
-0.000218988818232901
-0.000229959754506126
-0.000237053915043361
-0.000235949744819663
-0.000226447358727455
-0.000224471761612222
-0.000217033695662394
-0.000220075991819613
-0.000203891671844758
-0.000205961463507265
-0.00019591576710809
-0.000201307659153826
-0.000205345582799055
-0.000206459706532769
-0.000219517241930589
-0.000215010193642229
-0.00022059102775529
-0.000230836390983313
-0.000246003648499027
-0.000257317296927795
-0.000260562112089246
-0.000252828351221979
-0.000243262824369594
-0.000222950548049994
-0.000220679721678607
-0.0002192404208472
-0.000218146684346721
-0.000220438509131782
-0.00022304299636744
-0.000230343459406868
-0.000220945265027694
-0.000225369061809033
-0.00022840776364319
-0.000239365152083337
-0.000237251006183214
-0.000245510949753225
-0.000245234696194529
-0.000249218050157651
-0.000240552675677463
-0.000238013381022029
-0.000234314473345876
-0.000225946438149549
-0.000215200838283636
-0.000197274130186997
-0.000196716559003107
-0.00020856867195107
-0.000229120356380008
-0.00022747453476768
-0.000237786691286601
-0.00023576409148518
-0.000235030121984892
-0.000239546163356863
-0.000247187999775633
-0.000245170260313898
-0.000230538804316893
-0.00022450924734585
-0.000220722911763005
-0.000221525449887849
-0.000221847178181633
-0.000222299437155016
-0.000215319290873595
-0.000213173261727206
-0.000210994767257944
-0.000226861651754007
-0.000220637797610834
-0.000226701798965223
-0.000219089779420756
-0.000215918524190783
-0.000218048284295946
-0.000211438178666867
-0.000208207071409561
-0.000195376574993133
-0.000204899697564542
-0.000191946703125723
-0.000195694345165975
-0.000194372230907902
-0.000197042361833155
-0.000188279780559242
-0.000198599344003014
-0.000212963888770901
-0.000227078489842825
-0.000244502210989594
-0.000243250353378244
-0.000242358801187947
-0.00023765979858581
-0.000242309659370221
-0.000239029992371798
-0.000239143846556544
-0.00022230863396544
-0.000228933480684645
-0.000222774833673611
-0.000223127412027679
-0.000221859634621069
-0.000220499670831487
-0.000222700458834879
-0.00021470503997989
-0.000213899416849017
-0.000222417962504551
-0.000233418642892502
-0.000226795164053328
-0.000227508091484196
-0.00023136442177929
-0.000240112334722653
-0.000231434445595369
-0.000232021542615257
-0.000219932189793326
-0.000217110238736495
-0.000218680812395178
-0.000209210527827963
-0.000219556197407655
-0.000214274419704452
-0.000225245632464066
-0.000219597131945193
-0.000242204827372916
-0.000253813428571448
-0.000265603244770318
-0.000263170077232644
-0.00026234969845973
-0.000264909962425008
-0.00026413711020723
-0.000257759529631585
-0.000247805524850264
-0.000224878924200311
-0.000215683277929202
-0.000216274012927897
-0.000200940208742395
-0.000195472064660862
-0.000181371025973931
-0.000188852282008156
-0.000185341647011228
-0.000193454412510619
-0.000206647062441334
-0.000220062167500146
-0.000226481279241852
-0.000235968793276697
-0.000244738039327785
-0.000244424008997157
-0.000251210760325193
-0.000239306435105391
-0.000240179273532703
-0.000250029319431633
-0.000249468139372766
-0.000233731872867793
-0.000228530057938769
-0.000196917229914106
-0.000194693333469331
-0.000201908216695301
-0.000207451506867073
-0.000213905004784465
-0.000208805067813955
-0.000222433503950015
-0.000216315005673096
-0.000241031171754003
-0.000250075565418228
-0.000259804743109271
-0.000250376324402168
-0.000251166842645034
-0.000250605982728302
-0.000253086152952164
-0.00025354023091495
-0.000252068130066618
-0.000243581263930537
-0.000240243229200132
-0.000225108844460919
-0.000221172987949103
-0.00022231436742004
-0.000220630943658762
-0.00023462857643608
-0.000227599855861627
-0.000231145269935951
-0.000225484385737218
-0.000217124281334691
-0.000214418891118839
-0.000193553147255443
-0.000192579871509224
-0.000197916742763482
-0.000204307434614748
-0.000190460574231111
-0.000192450475879014
-0.000192139152204618
-0.000210499158129096
-0.000210729209356941
-0.000218630331801251
-0.000215409832890145
-0.000231106416322291
-0.00024634090368636
-0.000254327285801992
-0.000263115478446707
-0.000257914449321106
-0.00025403720792383
-0.000238817403442226
-0.000237724627368152
-0.000227621654630639
-0.000225582523853518
-0.000213462219107896
-0.000217152846744284
-0.000230019708396867
-0.000245217583142221
-0.000248181895585731
-0.000237624219153076
-0.000229342622333206
-0.000230342178838327
-0.000228406133828685
-0.000218535278690979
-0.000222179194679484
-0.000212918326724321
-0.000216797445318662
-0.000206441662157886
-0.00020878340001218
-0.000198148278286681
-0.000195252636331133
-0.000198129753698595
-0.000201732822461054
-0.000220363406697288
-0.000224106493988074
-0.000232306323596276
-0.000232642996707
-0.000236910404055379
-0.00024218657927122
-0.000258695537922904
-0.000256390747381374
-0.000248547468800098
-0.000233066908549517
-0.000240233814110979
-0.000238751003053039
-0.000227159092901275
-0.000211449980270117
-0.000199229922145605
-0.000188750040251762
-0.000176678295247257
-0.000193519968888722
-0.00019615248311311
-0.000218574190512299
-0.000220316695049405
-0.000219795969314873
-0.000235096245887689
-0.000247810618020594
-0.000248082797043025
-0.000244562950683758
-0.000236928215599619
-0.000230733785429038
-0.000228491175221279
-0.000235680825426243
-0.000233638507779688
-0.000229430967010558
-0.00024083697644528
-0.000234798673773184
-0.000242101159528829
-0.000245828210609034
-0.000238987820921466
-0.000228727760259062
-0.000221566966501996
-0.00022171504679136
-0.000228884076932445
-0.000233321072300896
-0.000224876173888333
-0.000226617252337746
-0.000220257672481239
-0.000219452806049958
-0.00019598011567723
-0.000196758686797693
-0.000190350503544323
-0.000192908511962742
-0.000191915954928845
-0.000190824212040752
-0.00020442038658075
-0.000208513025427237
-0.000213079751119949
-0.000207728560781106
-0.000223296097829007
-0.000226032512728125
-0.000234512481256388
-0.000233022394240834
-0.000227454118430614
-0.000226214091526344
-0.000231977173825726
-0.000230115707381628
-0.000227594675379805
-0.00023380848870147
-0.000246063893428072
-0.000269074109382927
-0.000269836076768115
-0.000275561906164512
-0.000270875956630334
-0.000272217876045033
-0.000255726277828217
-0.00025313752121292
-0.000241539673879743
-0.000230764315347187
-0.000209169535082765
-0.000197583678527735
-0.000198822657694109
-0.000180821181857027
-0.000174013068317436
-0.000165041841682978
-0.000163523320225067
-0.000158468363224529
-0.000170926039572805
-0.000169061051565222
-0.000180565533810295
-0.000189265963854268
-0.000212952640140429
-0.000223231298150495
-0.000236338411923498
-0.000251775345532224
-0.00024357478832826
-0.000246381823671982
-0.0002298325416632
-0.00022854920825921
-0.000233185346587561
-0.000230736695812084
-0.00022787660418544
-0.000247456220677122
-0.000258696847595274
-0.0002763302763924
-0.000259409163845703
-0.000249580945819616
-0.000233603495871648
-0.000229286481044255
-0.000230897683650255
-0.000225723284529522
-0.000229417302762158
-0.00021939400176052
-0.000223151728278026
-0.000200044451048598
-0.000186730962013826
-0.000182083589606918
-0.000185706958291121
-0.000187990517588332
-0.000188321515452117
-0.000194940759683959
-0.00021142685727682
-0.000218540269997902
-0.00021246810501907
-0.000214422572753392
-0.000216210086364299
-0.000229627345106564
-0.000240040084463544
-0.000254152284469455
-0.000251840567216277
-0.000252350117079914
-0.000243281829170883
-0.000249789911322296
-0.000245866074692458
-0.000231997473747469
-0.000238523643929511
-0.000244445283897221
-0.000244644383201376
-0.000242812166106887
-0.000241758665652014
-0.000225306575885042
-0.000218770946958102
-0.000218059823964722
-0.000218868619413115
-0.000211649632547051
-0.000206719094421714
-0.000193755331565626
-0.000187563986401074
-0.000197350629605353
-0.000197941335500218
-0.000199690519366413
-0.000204101015697233
-0.000220159403397702
-0.000208176687010564
-0.000218634406337514
-0.000229548400966451
-0.000240131339523941
-0.000243791248067282
-0.000256901839748025
-0.000251475779805332
-0.000249196746153757
-0.000242863054154441
-0.000230846577323973
-0.000228119621169753
-0.000215912965359166
-0.000216995555092581
-0.000207986231544055
-0.000204434560146183
-0.000196641907677986
-0.000211330465390347
-0.000210538855753839
-0.000204128256882541
-0.000208918150747195
-0.000220226589590311
-0.000222868984565139
-0.000225497526116669
-0.000247067044256255
-0.000252809288213029
-0.000252675381489098
-0.000248354452196509
-0.000240697845583782
-0.000238847904256545
-0.000243815477006137
-0.000231387311941944
-0.000230961581110023
-0.000223761438974179
-0.000227304626605473
-0.000237260916037485
-0.000239810600760393
-0.000247115211095661
-0.000249664240982383
-0.000270757707767188
-0.000263654976151884
-0.000265728012891486
-0.00025692002964206
-0.000251121819019318
-0.000227196229388937
-0.000209255158551969
-0.000199284026166424
-0.000199974310817197
-0.000194064195966348
-0.000184558346518315
-0.000175066888914444
-0.000186871548066847
-0.000201531423954293
-0.000196885535842739
-0.000209877616725862
-0.000212555576581508
-0.000234554565395229
-0.000237715285038575
-0.000243417976889759
-0.000244862516410649
-0.000242307301959954
-0.000231699959840625
-0.000216142740100622
-0.00022535800235346
-0.000222125367145054
-0.000230953941354528
-0.000233825499890372
-0.000238818436628208
-0.000244317576289177
-0.000256832398008555
-0.000242280715610832
-0.000241989459027536
-0.000241671150433831
-0.000257897016126662
-0.000258543790550902
-0.000250384153332561
-0.0002531731443014
-0.00024758608196862
-0.000240587251028046
-0.000221748705371283
-0.000219405294046737
-0.000204572468646802
-0.000200481837964617
-0.000183450640179217
-0.000195247092051431
-0.000200118418433703
-0.000209509264095686
-0.000218816450797021
-0.000215195788769051
-0.000213281702599488
-0.000214985862839967
-0.000229100056458265
-0.000226498930715024
-0.000236806110478938
-0.000232774298638105
-0.00024688383564353
-0.000250525306910276
-0.00024876170209609
-0.000233610204304568
-0.000228283548494801
-0.000224395116674714
-0.00021586098591797
-0.000211142731131986
-0.000215644831769168
-0.000226849340833723
-0.000225209150812589
-0.000228171789785847
-0.000228472737944685
-0.000235423736739904
-0.000227970071136951
-0.000225861469516531
-0.00021834387734998
-0.000223523253225721
-0.000216478802030906
-0.000212277504033409
-0.000207169534405693
-0.000207779172342271
-0.000220405709114857
-0.000223535098484717
-0.000236087362281978
-0.000241334069869481
-0.000237016458413564
-0.000234174338402227
-0.00023771496489644
-0.000241963149164803
-0.00024375035718549
-0.000234966282732785
-0.000217040927964263
-0.000207307675736956
-0.000212019731407054
-0.000222387898247689
-0.000221083042561077
-0.000236307401792146
-0.000234236533287913
-0.000248065101914108
-0.000252376106800511
-0.000256856961641461
-0.000244849710725248
-0.000248279422521591
-0.000233989878324792
-0.000217953071114607
-0.000215208696317859
-0.000221465641516261
-0.000236565290833823
-0.000227098513278179
-0.000217271619476378
-0.000211329737794585
-0.000205399410333484
-0.000186253848369233
-0.000179102993570268
-0.000186823352123611
-0.000213320890907198
-0.000228789969696663
-0.000237308267969638
-0.000248916330747306
-0.000250831129960716
-0.000257569045061246
-0.000244397378992289
-0.000241171685047448
-0.000235605926718563
-0.000241181725868955
-0.000225345007493161
-0.000212864790228195
-0.00021670047135558
-0.000226754593313672
-0.000226039614062756
-0.000229254554142244
-0.000223347131395712
-0.000226395422942005
-0.000235373765463009
-0.000231424608500674
-0.000232384845730849
-0.00022759463172406
-0.000232515259995125
-0.000227133714361116
-0.000234003717196174
-0.000230386067414656
-0.000229997123824432
-0.00021666896645911
-0.000208926241612062
-0.000199764413991943
-0.000197281944565475
-0.000198317095055245
-0.000195439904928207
-0.000211277088965289
-0.000229683719226159
-0.000243390910327434
-0.000233490442042239
-0.000235373052419163
-0.000224722985876724
-0.000229342811508104
-0.000228390126721933
-0.000236274470807984
-0.000241428657318465
-0.000246164039708674
-0.000247343035880476
-0.000244401191594079
-0.000244466355070472
-0.000242079913732596
-0.000244237540755421
-0.000239317014347762
-0.000234407372772694
-0.000234906852710992
-0.000241866480791941
-0.00023868223070167
-0.000228159944526851
-0.000228568183956668
-0.000226982694584876
-0.000220745263504796
-0.000217291555600241
-0.000221803056774661
-0.000225084033445455
-0.000231417070608586
-0.000222490794840269
-0.000222840943024494
-0.00021821868722327
-0.000220833608182147
-0.000223561277380213
-0.000234486928093247
-0.000241657238802873
-0.00023665139451623
-0.000231626618187875
-0.000224164992687292
-0.000219974070205353
-0.000221793408854864
-0.000245401315623894
-0.000234769133385271
-0.000232522957958281
-0.000219882203964516
-0.000223258713958785
-0.000209193880436942
-0.000207663280889392
-0.00021019579435233
-0.000217540087760426
-0.000220788409933448
-0.00022236377117224
-0.000225364477955736
-0.000232863196288235
-0.000238139909924939
-0.000236987907555886
-0.000229731027502567
-0.000224456904106773
-0.00023363581567537
-0.000223631344852038
-0.000223270690185018
-0.000223700728383847
-0.000222390808630735
-0.000221084745135158
-0.00020722059707623
-0.000203969000722282
-0.00021613560966216
-0.000233356826356612
-0.000231811762205325
-0.000240489200223237
-0.000234157458180562
-0.000231597514357418
-0.000220856527448632
-0.000214254425372928
-0.000229677491006441
-0.000234095350606367
-0.000236286505241878
-0.00023181016149465
-0.000219875786569901
-0.000214357409276999
-0.000220593268750235
-0.000213021878153086
-0.000210768761462532
-0.000205867923796177
-0.00022002833429724
-0.000218667890294455
-0.000230287463637069
-0.000232697901083156
-0.000232125021284446
-0.000225038369535468
-0.000205891978112049
-0.000207211909582838
-0.000212920625926927
-0.000215044827200472
-0.000216349217225797
-0.000218783170566894
-0.000223807990550995
-0.000234461447689682
-0.000227829907089472
-0.000232418577070348
-0.000231682293815538
-0.000243891074205749
-0.000246466777753085
-0.000239787172176875
-0.000241016095969826
-0.000239165528910235
-0.000245143542997539
-0.000239906381466426
-0.000234518898651004
-0.000223344322876073
-0.000215351421502419
-0.000202839422854595
-0.000199459405848756
-0.000200616894289851
-0.000199537782464176
-0.000199670583242551
-0.000201019531232305
-0.00019913527648896
-0.000206040218472481
-0.000225454132305458
-0.00020903667609673
-0.000213068851735443
-0.000209985257242806
-0.000229339973884635
-0.000234585211728699
-0.000229482146096416
-0.000232166785281151
-0.000237371976254508
-0.000236579246120527
-0.000233556376770139
-0.00022905868536327
-0.000216732485569082
-0.000215408086660318
-0.000219133129576221
-0.000219338457100093
-0.000213927443837747
-0.000220637302845716
-0.000208258556085639
-0.000201972987269983
-0.000209797624847852
-0.000225986426812597
-0.000247178482823074
-0.000247615244006738
-0.000250829296419397
-0.00024888149346225
-0.000253952661296353
-0.000244658964220434
-0.000232740727369674
-0.000215161970118061
-0.000218092667637393
-0.000207848032005131
-0.000202626732061617
-0.000207549426704645
-0.000226705073146149
-0.000228405653615482
-0.000220452231587842
-0.000222256756387651
-0.000226255724555813
-0.000221073642023839
-0.000208902914891951
-0.000210248719668016
-0.000202335242647678
-0.000210084996069781
-0.000199096975848079
-0.000211357168154791
-0.000221737689571455
-0.000235822168178856
-0.000233907951042056
-0.000231705620535649
-0.000231484649702907
-0.0002280744665768
-0.000232992199016735
-0.000236797539400868
-0.00023534896899946
-0.000236183550441638
-0.000243087531998753
-0.000227499491302296
-0.000222359332838096
-0.000202742972760461
-0.000204592404770665
-0.000202170296688564
-0.000198005014681257
-0.000193436077097431
-0.000175952853169292
-0.000192149542272091
-0.000198189518414438
-0.000220999907469377
-0.000235240426263772
-0.000254799611866474
-0.000261857698205859
-0.000263420050032437
-0.000257073435932398
-0.000264060799963772
-0.000255947496043518
-0.000244966329773888
-0.000240017267060466
-0.000236514897551387
-0.000238880544202402
-0.00021811509213876
-0.000215697131352499
-0.00021996715804562
-0.00021813009516336
-0.00020632408268284
-0.000209638572414406
-0.000202690134756267
-0.000200119058717973
-0.00020017301721964
-0.000202692070160992
-0.00020406671683304
-0.000215468884562142
-0.000223097100388259
-0.000219691690290347
-0.000217226872337051
-0.000210651589441113
-0.000220173882553354
-0.000221544498344883
-0.000223878931137733
-0.000225163661525585
-0.000239868051721714
-0.000235499552218243
-0.00023605563910678
-0.000251574761932716
-0.000249326054472476
-0.000246054580202326
-0.000235795785556547
-0.000235334213357419
-0.000245503411861137
-0.000243321424932219
-0.0002316750906175
-0.000226387521252036
-0.000215545282117091
-0.000211110367672518
-0.000209850579267368
-0.000202491020900197
-0.000206207172595896
-0.00021482165902853
-0.000220322966924868
-0.000212426486541517
-0.000213570572668686
-0.000214999177842401
-0.000227818483836017
-0.000222923219553195
-0.000218639135709964
-0.000210372440051287
-0.000215881285839714
-0.00020347285317257
-0.000198649358935654
-0.000195553686353378
-0.000202143521164544
-0.000215586696867831
-0.000216756074223667
-0.0002300266205566
-0.000240680543356575
-0.000249639997491613
-0.000239131317357533
-0.000244272087002173
-0.000239494183915667
-0.000240696026594378
-0.00024829019093886
-0.000245559960603714
-0.000237802989431657
-0.000232633363339119
-0.000230025863857008
-0.000222674803808331
-0.00022308126790449
-0.000214456653338857
-0.000230020465096459
-0.000230761070270091
-0.000226494390517473
-0.000221879396121949
-0.000222178830881603
-0.000214933374081738
-0.000220175934373401
-0.000215649517485872
-0.000218514760490507
-0.000231130383326672
-0.000215827021747827
-0.000223457420361228
-0.000214856248931028
-0.000215102889342233
-0.000210661135497503
-0.000217067354242317
-0.000219309542444535
-0.000219396766624413
-0.000214192361454479
-0.000217706241528504
-0.000222596281673759
-0.000231371843256056
-0.000231036945478991
-0.000224522402277216
-0.000224750227062032
-0.000236523846979253
-0.000248128693783656
-0.000241229281527922
-0.00024192247656174
-0.000223363109398633
-0.000225493291509338
-0.000209514022571966
-0.000209230187465437
-0.000216381129575893
-0.000218227418372408
-0.000228583579882979
-0.000222122398554347
-0.000215396052226424
-0.000215050589758903
-0.00022069904662203
-0.000210090089240111
-0.000215543594094925
-0.000211854538065381
-0.000231387573876418
-0.000226927775656804
-0.000223375580389984
-0.000210587444598786
-0.000212225728319026
-0.000216834261664189
-0.00020749174291268
-0.000202639435883611
-0.000201410715817474
-0.000222269722144119
-0.000217488792259246
-0.000236544481595047
-0.000243945250986144
-0.000248918542638421
-0.000244958675466478
-0.000238617765717208
-0.00023061825777404
-0.000230612087761983
-0.000223152761464007
-0.000216224376345053
-0.000216139742406085
-0.00021698436466977
-0.000224536284804344
-0.000222740069148131
-0.00022825165069662
-0.000221723588765599
-0.000230841964366846
-0.000235758416238241
-0.000239568878896534
-0.000238866894505918
-0.000234461185755208
-0.000242192589212209
-0.000240021559875458
-0.00023439536744263
-0.000226449323236011
-0.00022618705406785
-0.000215348220081069
-0.00021409553301055
-0.000210354570299387
-0.000218087167013437
-0.000211916703847237
-0.000214883693843149
-0.000202890776563436
-0.000202745563001372
-0.000208146157092415
-0.000215003849007189
-0.000220004410948604
-0.000228106655413285
-0.000240272507653572
-0.000229409706662409
-0.000238184118643403
-0.000239154978771694
-0.000245324859861284
-0.000230511097470298
-0.000223426235606894
-0.000216826796531677
-0.000226878590183333
-0.000223918745177798
-0.000222699833102524
-0.000211961421882734
-0.000213228311622515
-0.000224425632040948
-0.000227107870159671
-0.000226237127208151
-0.00022442803310696
-0.000240808236412704
-0.000245681119849905
-0.000244650058448315
-0.000235155443078838
-0.000227826400077902
-0.000216951288166456
-0.000205145915970206
-0.000206709039048292
-0.00021042961452622
-0.000215072199353017
-0.000217558175791055
-0.000226953983656131
-0.000235962361330166
-0.000252437603194267
-0.000253902457188815
-0.000255107996053994
-0.000242378373513929
-0.000241038404055871
-0.000235950763453729
-0.000229521465371363
-0.0002184630575357
-0.000214298648643307
-0.000222035334445536
-0.000207656688871793
-0.000208224708330817
-0.000208896221010946
-0.000225009804125875
-0.000215305131860077
-0.000211299018701538
-0.000212776081752963
-0.000221339680138044
-0.00022711104247719
-0.000233019803999923
-0.000231169207836501
-0.000241766087128781
-0.000248970609391108
-0.000238528838963248
-0.000242748064920306
-0.000242820824496448
-0.000239858782151714
-0.000230339734116569
-0.000241109111811966
-0.000232018050155602
-0.0002330090792384
-0.000234258404816501
-0.000225524083361961
-0.000225345487706363
-0.00023507974401582
-0.000248689786531031
-0.000245193892624229
-0.00024825893342495
-0.00024473070516251
-0.000244450813625008
-0.000233681159443222
-0.000225103372940794
-0.0002081646816805
-0.000187998957699165
-0.000184357428224757
-0.000180730770807713
-0.000193104948266409
-0.000198903464479372
-0.000207332996069454
-0.000210229307413101
-0.000224048693780787
-0.000226081945584156
-0.000242481837631203
-0.000240690089412965
-0.000237551212194376
-0.000236923355259933
-0.00023912351753097
-0.000226586198550649
-0.00022066717792768
-0.0002077262615785
-0.000207078948733397
-0.000210904720006511
-0.000206111901206896
-0.000204463911359198
-0.000207697798032314
-0.000218205081182532
-0.000209591875318438
-0.000230287667363882
-0.000239080603932962
-0.000245062285102904
-0.00024407151795458
-0.000243350135860965
-0.000244339607888833
-0.000237225656746887
-0.000225883675739169
-0.00021948351059109
-0.00021084476611577
-0.000197351182578132
-0.000210192520171404
-0.000215122228837572
-0.000214666215470061
-0.000212235390790738
-0.000222920003579929
-0.000227851051022299
-0.000229496974498033
-0.000241290908888914
-0.00024987556389533
-0.000260743458056822
-0.00025667148292996
-0.000259415857726708
-0.000248900585575029
-0.000244593189563602
-0.000225308060180396
-0.000216868837014772
-0.000204700554604642
-0.000199113128473982
-0.000196576482267119
-0.000195006272406317
-0.000186136589036323
-0.000195257583982311
-0.000203151226742193
-0.0001989574811887
-0.000199729212909006
-0.000203241856070235
-0.000219750654650852
-0.000222958959056996
-0.000233673970797099
-0.000227174867177382
-0.000231545447604731
-0.000221818729187362
-0.00021628568356391
-0.000220851768972352
-0.00023172952933237
-0.000252328783972189
-0.000255577702773735
-0.000250843120738864
-0.000257004576269537
-0.000254479673458263
-0.000245675561018288
-0.000240021705394611
-0.000226543357712217
-0.000233566795941442
-0.000226937205297872
-0.000217307242564857
-0.00021310466399882
-0.000207751567359082
-0.000198367022676393
-0.000193546438822523
-0.00019411752873566
-0.000192118110135198
-0.000213814244489186
-0.000219963287236169
-0.000216826258110814
-0.000221645677811466
-0.000237874570302665
-0.000230124845984392
-0.000229524623136967
-0.000225860625505447
-0.000228646575124003
-0.000233270126045681
-0.00022432157129515
-0.000229568293434568
-0.000225135183427483
-0.000231790356338024
-0.00022169976728037
-0.000225094292545691
-0.000231356025324203
-0.000243318892898969
-0.000237982007092796
-0.00023483311815653
-0.000236681546084583
-0.000239174798480235
-0.000238235981669277
-0.000232536243856884
-0.000219525842112489
-0.000210955637157895
-0.000212223603739403
-0.000203673160285689
-0.000203802075702697
-0.000184899588930421
-0.000196772321942262
-0.000198483510757796
-0.000200737762497738
-0.00020331576524768
-0.000203870789846405
-0.000216189699131064
-0.000214178828173317
-0.000224416260607541
-0.000233704064157791
-0.00024330428277608
-0.000224371658987366
-0.000227818731218576
-0.000241181551245972
-0.000243839298491366
-0.000239685017731972
-0.000241742032812908
-0.000227799057029188
-0.000228377073653974
-0.000223954688408412
-0.000225362557102926
-0.000232433943892829
-0.000224170842557214
-0.000236475418205373
-0.000231773301493376
-0.000235982093727216
-0.000227753174840473
-0.000238213702687062
-0.000242497466388158
-0.000229767960263416
-0.000231454221648164
-0.000229765442782082
-0.000226184754865244
-0.000215363237657584
-0.000198057357920334
-0.000191276383702643
-0.000194003048818559
-0.000190602921065874
-0.000202720344532281
-0.000209015139262192
-0.000215694890357554
-0.000214437503018416
-0.000211376318475231
-0.00020995493105147
-0.000208126904908568
-0.000208600351470523
-0.000206173834158108
-0.000211581587791443
-0.000211131336982362
-0.000215766602195799
-0.000217340493691154
-0.000217277425690554
-0.000210677710128948
-0.000234859267948195
-0.000241842979448847
-0.000250454933848232
-0.000248462805757299
-0.0002510066551622
-0.000250552169745788
-0.000252293975790963
-0.000257563980994746
-0.000254185200901702
-0.000270209857262671
-0.000261559529462829
-0.000254368671448901
-0.000239581102505326
-0.000240533147007227
-0.000235236904700287
-0.000226614152779803
-0.000217744614928961
-0.000216086787986569
-0.000219207286136225
-0.000218860222958028
-0.000209435369470157
-0.000209350997465663
-0.000217198219615966
-0.000219582405406982
-0.000215970401768573
-0.000199778223759495
-0.000204933210625313
-0.000196240493096411
-0.000194126332644373
-0.000184146716492251
-0.00017179649148602
-0.000172092870343476
-0.000165878431289457
-0.000176371249835938
-0.000199735746718943
-0.000224748597247526
-0.000236401698202826
-0.00025262261624448
-0.000255690247286111
-0.000274782767519355
-0.000271907512797043
-0.000276618025964126
-0.000274560676189139
-0.000273068668320775
-0.000282516120932996
-0.000260738976066932
-0.000253813341259956
-0.000239066634094343
-0.000235625499044545
-0.00022433816047851
-0.000225913972826675
-0.000206010459805839
-0.000197881992789917
-0.000183629352250136
-0.000178518137545325
-0.000182624135049991
-0.000193706713616848
-0.000200828537344933
-0.000203808725927956
-0.000197399916942231
-0.000200985887204297
-0.000207171600777656
-0.000206253884243779
-0.000202883777092211
-0.000190600345376879
-0.000195065338630229
-0.000193123778444715
-0.000208398414542898
-0.000219755529542454
-0.000226821561227553
-0.000216715649003163
-0.000217403779970482
-0.000216335247387178
-0.000224293486098759
-0.000226842676056549
-0.000226323478273116
-0.000234276769333519
-0.000236075269640423
-0.000253295962465927
-0.000246742682065815
-0.000246698036789894
-0.000234886654652655
-0.000223495007958263
-0.000219717214349657
-0.00021156131697353
-0.000225058291107416
-0.000231082711252384
-0.000241201516473666
-0.000247893884079531
-0.000251786404987797
-0.000259347987594083
-0.000267354160314426
-0.000260364555288106
-0.000254393351497129
-0.000243192174821161
-0.00022619211813435
-0.000222930728341453
-0.00021173465938773
-0.000191538551007398
-0.000184332224307582
-0.00018949453078676
-0.000185657627298497
-0.000190089951502159
-0.000189334459719248
-0.000194871754501946
-0.000193167521501891
-0.000219505280256271
-0.000215597407077439
-0.000211461461731233
-0.000215003470657393
-0.000208192286663689
-0.000203295465325937
-0.000197772344108671
-0.000200369351659901
-0.000203460236662067
-0.000197849964024499
-0.000199013025849126
-0.000219534427742474
-0.000232904829317704
-0.000247953226789832
-0.000254520447924733
-0.0002728822582867
-0.000276407197816297
-0.00028096348978579
-0.000280152395134792
-0.000272923527518287
-0.000262376765022054
-0.000241948437178507
-0.00022647729201708
-0.000213322564377449
-0.000214539424632676
-0.000191235492820852
-0.000179199763806537
-0.000184670352609828
-0.000199533838895149
-0.000200241760467179
-0.000189723781659268
-0.000183603260666132
-0.000198791924049147
-0.000212767772609368
-0.000214845465961844
-0.000215077787288465
-0.00020573430811055
-0.000210095531656407
-0.000204445226700045
-0.000209612975595519
-0.00021311902673915
-0.000221932816202752
-0.000229149954975583
-0.000232849342864938
-0.000242674912442453
-0.000246020354097709
-0.000252168392762542
-0.000241786285187118
-0.000234767925576307
-0.000235901621636003
-0.00024860876146704
-0.000243424059590325
-0.000250476354267448
-0.000236361447605304
-0.000254247977863997
-0.00024261478392873
-0.000230457924772054
-0.00021760183153674
-0.000199120593606494
-0.000192645165952854
-0.000186144636245444
-0.000200467417016625
-0.000196715409401804
-0.00020567505271174
-0.000209589372389018
-0.000200955750187859
-0.0001922275259858
-0.000203288596821949
-0.000217832493945025
-0.000225725205382332
-0.000223916998947971
-0.000226386357098818
-0.00023388686531689
-0.00022987365082372
-0.00023264808987733
-0.000222982649574988
-0.000225494455662556
-0.00021905051835347
-0.000230071469559334
-0.000236708670854568
-0.000237443469814025
-0.000229385317652486
-0.000220562287722714
-0.000225678304559551
-0.00023187545593828
-0.00024291401496157
-0.000242675407207571
-0.00023377122124657
-0.000226433374336921
-0.00021946475317236
-0.000201331902644597
-0.000193952684639953
-0.000186936929821968
-0.000192763400264084
-0.000192259642062709
-0.000205725329578854
-0.000208614699658938
-0.000207782126381062
-0.000211728576687165
-0.00020726807997562
-0.000205780830583535
-0.000221460242755711
-0.000230278033996001
-0.000233186481636949
-0.00023652873642277
-0.000235666972002946
-0.000240341745666228
-0.000241460496908985
-0.000245321018155664
-0.000229961282457225
-0.00022609367442783
-0.000234492181334645
-0.000229885568842292
-0.000230608449783176
-0.000223860450205393
-0.000230153615120798
-0.000225732568651438
-0.000226111063966528
-0.00021587309311144
-0.000225493335165083
-0.000223313749302179
-0.000219664856558666
-0.000215731604839675
-0.000209423349588178
-0.000209662233828567
-0.00020740479521919
-0.00019972724840045
-0.000206478114705533
-0.000217156499275006
-0.000214753556065261
-0.000234816514421254
-0.000230716352234594
-0.000228826989769004
-0.000229135999688879
-0.00023008779680822
-0.000233834784012288
-0.000242970578256063
-0.000242199559579603
-0.000230936595471576
-0.000229791636229493
-0.0002339575876249
-0.000234643899602815
-0.000231448357226327
-0.000227246913709678
-0.000214676052564755
-0.000223392999032512
-0.000218107874388806
-0.000228708988288417
-0.000227404336328618
-0.000225953132030554
-0.00023019926447887
-0.000222649177885614
-0.000214807383599691
-0.000209414909477346
-0.000209586811251938
-0.000204919517273083
-0.000219137276872061
-0.000225092560867779
-0.000228798657190055
-0.000218293993384577
-0.000208723096875474
-0.000218619417864829
-0.000229285738896579
-0.000226044576265849
-0.000219396519241854
-0.000210510988836177
-0.000209158592042513
-0.000227923155762255
-0.000224036441068165
-0.000238919048570096
-0.000226515243411995
-0.000220658403122798
-0.000213963212445378
-0.000217834414797835
-0.00021338312944863
-0.000207777309697121
-0.000199377565877512
-0.000205566277145408
-0.000221133013837971
-0.000228732358664274
-0.000240133464103565
-0.000236622916418128
-0.00022335464018397
-0.000223881550482474
-0.000244555558310822
-0.000248900556471199
-0.000264406116912141
-0.000260324217379093
-0.000263933674432337
-0.000271194032393396
-0.000266491057118401
-0.000252709665801376
-0.000230098914471455
-0.000212723243748769
-0.000202421229914762
-0.000203071860596538
-0.00019324358436279
-0.000200833921553567
-0.000190723047126085
-0.00019228013115935
-0.000190444086911157
-0.000211854421650059
-0.00021677280892618
-0.000216204338357784
-0.000212235550861806
-0.00020750000840053
-0.000215222637052648
-0.00021187991660554
-0.000207374614547007
-0.000200315858819522
-0.000218638509977609
-0.000221182242967188
-0.000229392680921592
-0.000225858617341146
-0.000228044678806327
-0.000225418858462945
-0.000225752621190622
-0.000245933217229322
-0.000255062012001872
-0.000253780803177506
-0.000246826879447326
-0.000239420623984188
-0.000225555093493313
-0.00023004763352219
-0.000217627442907542
-0.000222615504753776
-0.000226628573727794
-0.000246808602241799
-0.000260467204498127
-0.0002661322359927
-0.000258100539213046
-0.000244739261688665
-0.000237351530813612
-0.000226082527660765
-0.000223477734834887
-0.000219036883208901
-0.000220733360038139
-0.000207627061172388
-0.000195051528862677
-0.000190712962648831
-0.000188214544323273
-0.000182181756827049
-0.000174250395502895
-0.000176273664692417
-0.000192746723769233
-0.000213710256502964
-0.000231639918638393
-0.000235101208090782
-0.000233934508287348
-0.000258402666077018
-0.000260606087977067
-0.000265334791038185
-0.000261833134572953
-0.000267162045929581
-0.000262382003711537
-0.000253476697253063
-0.000238438675296493
-0.00022761856962461
-0.000223219831241295
-0.000218156725168228
-0.000216404398088343
-0.000223146183998324
-0.000240712586673908
-0.000238475884543732
-0.00024193711578846
-0.000234055813052691
-0.000237599131651223
-0.000237392785493284
-0.00023507367586717
-0.000222904607653618
-0.000211984486668371
-0.000206831784453243
-0.000192965264432132
-0.000192400621017441
-0.000188342397450469
-0.000192230174434371
-0.000193605796084739
-0.000203822113689966
-0.000209488440304995
-0.000227298922254704
-0.00022878433810547
-0.00022044601792004
-0.000214219704503193
-0.000226414515054785
-0.000237284999457188
-0.000234481311053969
-0.000245563802309334
-0.000236442981986329
-0.000243736343691126
-0.000233448081417009
-0.000231091820751317
-0.000226051706704311
-0.000218051252886653
-0.000206017110031098
-0.000200182403204963
-0.000210709913517348
-0.000218533983570524
-0.000231989004532807
-0.000227262484258972
-0.00022990872093942
-0.000231097335927188
-0.000237987478612922
-0.000237743894103914
-0.000242151785641909
-0.000235105253523216
-0.000239543282077648
-0.000234652688959613
-0.000239326705923304
-0.00022609367442783
-0.000209827732760459
-0.0002105453168042
-0.000192510095075704
-0.000191378188901581
-0.0002015659265453
-0.000210033569601364
-0.000208316909265704
-0.000213978724787012
-0.000220851754420437
-0.000226649877731688
-0.000223152019316331
-0.000216291518881917
-0.000205570351681672
-0.000200880487682298
-0.000199188434635289
-0.000204344614758156
-0.000199167581740767
-0.000195300730410963
-0.000216918386286125
-0.000230303383432329
-0.000251737714279443
-0.000265397771727294
-0.000272338133072481
-0.000265447393758222
-0.000258525105891749
-0.000275276775937527
-0.000279057072475553
-0.000280382082564756
-0.000262851361185312
-0.000247841177042574
-0.000231174111831933
-0.00022368723875843
-0.000207826160476543
-0.00019838749722112
-0.000183262265636586
-0.000197556568309665
-0.000198005771380849
-0.000208413664950058
-0.000215734442463145
-0.000217947061173618
-0.000227877870202064
-0.000226114774704911
-0.000231283629545942
-0.000232356745982543
-0.000239179251366295
-0.000224649120355025
-0.000218185668927617
-0.000211630031117238
-0.000210534533835016
-0.000199533329578116
-0.000190128717804328
-0.000190200094948523
-0.000195113767404109
-0.000219034278416075
-0.000227745476877317
-0.000234060076763853
-0.000231884492677636
-0.000250652810791507
-0.000252087251283228
-0.000264882371993735
-0.000260075787082314
-0.000259690248640254
-0.000259930005995557
-0.000251406861934811
-0.000246155250351876
-0.000235387546126731
-0.00022192663163878
-0.000208233948796987
-0.000190582315553911
-0.000178199756192043
-0.00018181573250331
-0.000184751756023616
-0.000188499892828986
-0.000192754727322608
-0.000213692095712759
-0.000219836438191123
-0.000225493524339981
-0.000222257789573632
-0.000225505835260265
-0.00022862663900014
-0.00021972059039399
-0.000216203930904157
-0.000219452136661857
-0.000224007875658572
-0.000215189909795299
-0.000225747091462836
-0.00022809681831859
-0.000234663748415187
-0.000231014084420167
-0.000224336414248683
-0.000220513509702869
-0.000222519302042201
-0.000240241191932
-0.000240119217778556
-0.000247995369136333
-0.000239536151639186
-0.000239174129092134
-0.000226828153245151
-0.000234373612329364
-0.000233832688536495
-0.000240941284573637
-0.000233284314163029
-0.000223222290514968
-0.000228408913244493
-0.000227758704568259
-0.000217036707908846
-0.000210958940442651
-0.000208192781428806
-0.000207154909730889
-0.00021217814355623
-0.000210776037420146
-0.000220604575588368
-0.000202652925509028
-0.000195449349121191
-0.000174782398971729
-0.000176891437149607
-0.000176963410922326
-0.000182817180757411
-0.000207177756237797
-0.000227994707529433
-0.000245432544033974
-0.000256376079050824
-0.000264358473941684
-0.00026715692365542
-0.000261490320554003
-0.000254375947406515
-0.000252048019319773
-0.000240903376834467
-0.000228274497203529
-0.000218230212340131
-0.000213736115256324
-0.000206780896405689
-0.000205163509235717
-0.000207264034543186
-0.00020296974980738
-0.000204230833332986
-0.000214419080293737
-0.000236664011026733
-0.000239079643506557
-0.000251174089498818
-0.000251976598519832
-0.00025748333428055
-0.000263604539213702
-0.000275524420430884
-0.00026585248997435
-0.000256609870120883
-0.000252467871177942
-0.000247653224505484
-0.000245352159254253
-0.000228746590437368
-0.000216615328099579
-0.000202662049559876
-0.00020745862275362
-0.000196674474864267
-0.000202396069653332
-0.000199932066607289
-0.000198879279196262
-0.000207886274438351
-0.000225792988203466
-0.000228616612730548
-0.000237384258070961
-0.000242332738707773
-0.000236281106481329
-0.000224162984522991
-0.00022204066044651
-0.000222251052036881
-0.00021415064111352
-0.000216339918551966
-0.000209855934372172
-0.000214736734051257
-0.00022488807735499
-0.000223973795073107
-0.000231666082981974
-0.000228338380111381
-0.000228406759561039
-0.000225669937208295
-0.000230297504458576
-0.000242237612837926
-0.000250519253313541
-0.000234197868849151
-0.000221100242924876
-0.000210587109904736
-0.000219891662709415
-0.000220043701119721
-0.000215121413930319
-0.000217661654460244
-0.000219840236240998
-0.000213957973755896
-0.000206327909836546
-0.000205731790629215
-0.000192171835806221
-0.000201333226868883
-0.000212424682104029
-0.000221534006414004
-0.00022408009681385
-0.000221698690438643
-0.000215719090192579
-0.000212559185456485
-0.00021700473735109
-0.000225808937102556
-0.000230999241466634
-0.000233648112043738
-0.000236243125982583
-0.000242773210629821
-0.000241781817749143
-0.000230881210882217
-0.000227614029427059
-0.000225626296014525
-0.000227762531721964
-0.000230786463362165
-0.000236249034060165
-0.000238091161008924
-0.000230154124437831
-0.000228548102313653
-0.000217159758904017
-0.000226450138143264
-0.000222075337660499
-0.000222461123485118
-0.000217546868952922
-0.000225457188207656
-0.000222708375076763
-0.000221181180677377
-0.000214694300666451
-0.00019815273117274
-0.000177489884663373
-0.000168788683367893
-0.000188348130905069
-0.000199997230083682
-0.00021173847198952
-0.000205207586986944
-0.000218894012505189
-0.000219831170397811
-0.000219150286284275
-0.000208652229048312
-0.000209543737582862
-0.000211927719647065
-0.00021638412727043
-0.000232701233471744
-0.000241957124671899
-0.000258081156061962
-0.000268753152340651
-0.000276231294265017
-0.000273042503977194
-0.000281327229458839
-0.000280261709121987
-0.00027221004711464
-0.000257724430412054
-0.000248535390710458
-0.000238242369960062
-0.000221077571040951
-0.00021257963089738
-0.000202763781999238
-0.000195501212147065
-0.00019224637071602
-0.000190646009286866
-0.000186320234206505
-0.00019280071137473
-0.000194704174646176
-0.000204135896638036
-0.000218389832298271
-0.000230658901273273
-0.000225136041990481
-0.000220609988900833
-0.000218435190618038
-0.000228003918891773
-0.000235425046412274
-0.000235448431340046
-0.000231507845455781
-0.000229007710004225
-0.000228409713599831
-0.000223273949814029
-0.000230108344112523
-0.000229473720537499
-0.00023967343440745
-0.000239967339439318
-0.000240066117839888
-0.000236589825362898
-0.000237565720453858
-0.000243730581132695
-0.000222273229155689
-0.000211164748179726
-0.000209204838029109
-0.000213402323424816
-0.000196495238924399
-0.000196223554667085
-0.000186461169505492
-0.00019526356481947
-0.000202364462893456
-0.000213657724088989
-0.000215095235034823
-0.000226581178139895
-0.000233898826991208
-0.000243016664171591
-0.000247445685090497
-0.000246861076448113
-0.000252626225119457
-0.00025046689552255
-0.000256204511970282
-0.000252786790952086
-0.000252173718763515
-0.000230177844059654
-0.000229967918130569
-0.000221811977098696
-0.000222464368562214
-0.000218410743400454
-0.000218021086766384
-0.000218642919207923
-0.000210994883673266
-0.000209584934054874
-0.000200562630197965
-0.000210192956728861
-0.000214295971090905
-0.000228531222091988
-0.000226951407967135
-0.000222351955017075
-0.000206323908059858
-0.000207795470487326
-0.00021434691734612
-0.00022121105575934
-0.000221732960199006
-0.000225097959628329
-0.0002436936047161
-0.000242339010583237
-0.000237840358749963
-0.000231913159950636
-0.000251268938882276
-0.000260816508671269
-0.000270892312983051
-0.000268674310063943
-0.000272476609097794
-0.00027169517125003
-0.000258566200500354
-0.000248100986937061
-0.000237057538470253
-0.000227695069042966
-0.000214108484215103
-0.000212637794902548
-0.000210118567338213
-0.000221804555621929
-0.000223009366891347
-0.000226841526455246
-0.00021793476480525
-0.000217911772779189
-0.000224593954044394
-0.000226417047088034
-0.000224987248657271
-0.000210289435926825
-0.000216327753150836
-0.000215341235161759
-0.000225017298362218
-0.00021822695271112
-0.000231154990615323
-0.000234717314015143
-0.000239403671002947
-0.000241291068959981
-0.000238451320910826
-0.000234493840252981
-0.000234953229664825
-0.000232962222071364
-0.000239588131080382
-0.000256389263086021
-0.000242790774791501
-0.000243636372033507
-0.000229084907914512
-0.00021787011064589
-0.000201879636733793
-0.000194931504665874
-0.000191400322364643
-0.000190837658010423
-0.000200523427338339
-0.000202167022507638
-0.000211899387068115
-0.000215148931602016
-0.00022308221377898
-0.000222428265260532
-0.000215072912396863
-0.000213879597140476
-0.000229330165893771
-0.000228923439863138
-0.000241249173996039
-0.000230618054047227
-0.000231106285355054
-0.000232201666221954
-0.00023177734692581
-0.00023958837846294
-0.000232044287258759
-0.00024026763276197
-0.000238848107983358
-0.00024540419690311
-0.000243884016526863
-0.000245338422246277
-0.000239848654018715
-0.000244012044277042
-0.000230185440159403
-0.000233928149100393
-0.000222001777729019
-0.000216715983697213
-0.000208426776225679
-0.000211810242035426
-0.000212147177080624
-0.000209036195883527
-0.000210207843338139
-0.000205831456696615
-0.000216621934669092
-0.000216918837395497
-0.000220285539398901
-0.000226363059482537
-0.000242152425926179
-0.00024892677902244
-0.000236704625422135
-0.000236840613069944
-0.000238354259636253
-0.000243611968471669
-0.000228952689212747
-0.000218451023101807
-0.000211253325687721
-0.000216502085095271
-0.000201942646526732
-0.000206966011319309
-0.000208220546483062
-0.000216560569242574
-0.000219679495785385
-0.000234083301620558
-0.000231413112487644
-0.000232187259825878
-0.00023949853493832
-0.000241456844378263
-0.000243084417888895
-0.000236359104746953
-0.00023103468993213
-0.000214068946661428
-0.000210250480449758
-0.00020327273523435
-0.000211058926652186
-0.00020670572121162
-0.00021700604702346
-0.000212521437788382
-0.000225922078243457
-0.000246727227931842
-0.000250377022894099
-0.000251508579822257
-0.000250127312028781
-0.000247041025431827
-0.000235487052123062
-0.000234807535889558
-0.000230509773246013
-0.000225697483983822
-0.000217477980186231
-0.000209463920327835
-0.000204135983949527
-0.000203722112928517
-0.000219953319174237
-0.000221445006900467
-0.000232603430049494
-0.000238374093896709
-0.000251560122705996
-0.000245641160290688
-0.000236720792599954
-0.000220829650061205
-0.000223583076149225
-0.00021982315229252
-0.000217141699977219
-0.000214589570532553
-0.00020773358119186
-0.000217011824133806
-0.00021910470968578
-0.000225803058128804
-0.000214673244045116
-0.000230927442316897
-0.000232368052820675
-0.000228644697926938
-0.000233644881518558
-0.000249083124799654
-0.000250653974944726
-0.000248057651333511
-0.00024767906870693
-0.000250402226811275
-0.000248229334829375
-0.000226972930249758
-0.000216891246964224
-0.0001905153185362
-0.000191571656614542
-0.000182663367013447
-0.000183784213731997
-0.000184285891009495
-0.000198767476831563
-0.000217501888982952
-0.000217980894376524
-0.000225615513045341
-0.000230462159379385
-0.000238858949160203
-0.000241363741224632
-0.000246524286922067
-0.000247941352427006
-0.000250798184424639
-0.000231406986131333
-0.000220907910261303
-0.000208094206755049
-0.000217075474211015
-0.000214470434002578
-0.000224900955799967
-0.000236208536080085
-0.000226763324462809
-0.000217167194932699
-0.000211142760235816
-0.000227354219532572
-0.000226589356316253
-0.00023692348622717
-0.000232100384891964
-0.000218930188566446
-0.000223735580220818
-0.000237142929108813
-0.000245182105572894
-0.000242665817495435
-0.000217592096305452
-0.000210266749490984
-0.000206664131837897
-0.00020372198196128
-0.000198561261640862
-0.000206064811209217
-0.00021215777087491
-0.000211516511626542
-0.000227026408538222
-0.000234101215028204
-0.000239940214669332
-0.000239704837440513
-0.000245324481511489
-0.000252603116678074
-0.000248987227678299
-0.000236267704167403
-0.000213686216739006
-0.000209542136872187
-0.000208271841984242
-0.000213144812732935
-0.000204232172109187
-0.00021035001554992
-0.000216879867366515
-0.000234262057347223
-0.000245084433117881
-0.000242811176576652
-0.000249683216679841
-0.00026023483951576
-0.000255605467827991
-0.000238753171288408
-0.000243003756622784
-0.000229954937822185
-0.000215238134842366
-0.00019324327877257
-0.00018268235726282
-0.000185225260793231
-0.000199981877813116
-0.000209134159376845
-0.000226008967729285
-0.000231589496252127
-0.00023847866395954
-0.000242499416344799
-0.000228096294449642
-0.000226365271373652
-0.000214206549571827
-0.000221898808376864
-0.000225596915697679
-0.000229730663704686
-0.000214673011214472
-0.000210470054298639
-0.000195729968254454
-0.000179709371877834
-0.000190301434486173
-0.000200183756533079
-0.000204589392524213
-0.000206548080313951
-0.000220626418013126
-0.000224288887693547
-0.000233986065723002
-0.000242009860812686
-0.000242295252974145
-0.00023417804914061
-0.000239472297835164
-0.000241834495682269
-0.000235311832511797
-0.000230570032726973
-0.000224104340304621
-0.0002245210489491
-0.00020586779282894
-0.000204396681510843
-0.00020544724247884
-0.000229475830565207
-0.000232993115787394
-0.000231779224122874
-0.000232900056289509
-0.000243290618527681
-0.000232153819524683
-0.00023729020904284
-0.000217469656490721
-0.000221246853470802
-0.000227474403800443
-0.000232563819736242
-0.000237367654335685
-0.000227755299420096
-0.0002285386872245
-0.000216331449337304
-0.000213372666621581
-0.000209497040486894
-0.000219440131331794
-0.000218667410081252
-0.000214529063669033
-0.000214232510188594
-0.00022252622875385
-0.000216456857742742
-0.000218579938518815
-0.000218934030272067
-0.000231093072216026
-0.000243069473071955
-0.00024357189249713
-0.000246429088292643
-0.0002296770690009
-0.000224751900532283
-0.000218960994970985
-0.000221576527110301
-0.000223259761696681
-0.000235425206483342
-0.000243881353526376
-0.00023464480182156
-0.000236529274843633
-0.000220776986679994
-0.000213278966839425
-0.000206984434043989
-0.000203030431293882
-0.000202152266865596
-0.000219085806747898
-0.000208658631891012
-0.000206453871214762
-0.000203088100533932
-0.00020254438277334
-0.000203223942662589
-0.000199389585759491
-0.000186954493983649
-0.000181929164682515
-0.000193496976862662
-0.000206025288207456
-0.000214329920709133
-0.000216380867641419
-0.000230955280130729
-0.000227712298510596
-0.000219740148168057
-0.000224832037929445
-0.000232962425798178
-0.000222442671656609
-0.000218466680962592
-0.000222222588490695
-0.000228162200073712
-0.000237678570556454
-0.000238623833865859
-0.000252531113801524
-0.000249371310928836
-0.000256603671004996
-0.000241077912505716
-0.000243155955104157
-0.000233764701988548
-0.00023645200417377
-0.00024341166135855
-0.000239936794969253
-0.000239216125919484
