CH1, CH2,CH3,CH4
727.0,725.0,724.0,726.0
736.0,733.0,737.0,735.0
737.0,735.0,743.0,739.0
738.0,738.0,749.0,741.0
739.0,739.0,749.0,736.0
737.0,735.0,740.0,730.0
734.0,730.0,735.0,727.0
732.0,729.0,730.0,725.0
731.0,725.0,726.0,723.0
724.0,720.0,720.0,714.0
721.0,718.0,716.0,713.0
719.0,715.0,712.0,708.0
719.0,715.0,704.0,703.0
717.0,712.0,700.0,701.0
716.0,714.0,706.0,713.0
719.0,718.0,711.0,724.0
723.0,721.0,721.0,730.0
727.0,726.0,727.0,735.0
735.0,732.0,737.0,745.0
738.0,736.0,744.0,752.0
740.0,737.0,747.0,755.0
737.0,736.0,746.0,748.0
735.0,733.0,743.0,744.0
733.0,730.0,742.0,742.0
730.0,729.0,737.0,737.0
728.0,725.0,731.0,733.0
723.0,719.0,724.0,725.0
719.0,716.0,721.0,721.0
718.0,716.0,717.0,716.0
717.0,716.0,708.0,710.0
717.0,713.0,705.0,708.0
719.0,716.0,709.0,711.0
723.0,721.0,714.0,715.0
727.0,723.0,717.0,722.0
733.0,731.0,730.0,730.0
737.0,734.0,734.0,733.0
740.0,737.0,735.0,740.0
743.0,738.0,733.0,745.0
740.0,734.0,729.0,743.0
735.0,731.0,726.0,742.0
734.0,729.0,723.0,740.0
730.0,725.0,726.0,738.0
727.0,723.0,724.0,734.0
722.0,719.0,719.0,727.0
720.0,716.0,715.0,725.0
717.0,713.0,708.0,718.0
715.0,712.0,706.0,709.0
714.0,716.0,705.0,718.0
720.0,717.0,713.0,726.0
722.0,722.0,725.0,729.0
726.0,725.0,732.0,731.0
733.0,731.0,746.0,739.0
736.0,734.0,749.0,742.0
739.0,736.0,748.0,744.0
739.0,739.0,741.0,741.0
737.0,732.0,733.0,740.0
733.0,729.0,732.0,736.0
732.0,727.0,730.0,728.0
729.0,724.0,729.0,720.0
723.0,718.0,723.0,710.0
721.0,716.0,721.0,707.0
719.0,715.0,717.0,701.0
719.0,713.0,708.0,692.0
717.0,712.0,703.0,695.0
717.0,714.0,706.0,704.0
721.0,718.0,711.0,718.0
724.0,723.0,721.0,729.0
728.0,727.0,723.0,734.0
735.0,733.0,732.0,742.0
739.0,736.0,737.0,749.0
740.0,736.0,742.0,750.0
737.0,736.0,741.0,745.0
734.0,734.0,740.0,748.0
733.0,729.0,740.0,753.0
729.0,727.0,739.0,747.0
727.0,724.0,734.0,747.0
721.0,719.0,726.0,738.0
718.0,716.0,721.0,732.0
717.0,714.0,717.0,727.0
717.0,714.0,711.0,722.0
715.0,709.0,708.0,716.0
718.0,714.0,711.0,717.0
722.0,719.0,715.0,724.0
725.0,721.0,723.0,729.0
733.0,733.0,734.0,740.0
735.0,734.0,738.0,743.0
737.0,735.0,744.0,747.0
740.0,734.0,742.0,750.0
736.0,732.0,739.0,744.0
733.0,731.0,733.0,740.0
732.0,729.0,733.0,738.0
727.0,726.0,730.0,732.0
726.0,723.0,728.0,728.0
721.0,718.0,728.0,723.0
719.0,715.0,725.0,718.0
717.0,712.0,720.0,711.0
716.0,714.0,715.0,701.0
718.0,714.0,717.0,699.0
719.0,717.0,719.0,701.0
724.0,722.0,720.0,704.0
728.0,725.0,722.0,711.0
734.0,733.0,732.0,722.0
737.0,735.0,738.0,735.0
740.0,737.0,736.0,740.0
742.0,738.0,729.0,741.0
739.0,732.0,726.0,738.0
734.0,729.0,728.0,731.0
732.0,728.0,727.0,727.0
730.0,724.0,724.0,718.0
723.0,720.0,715.0,701.0
723.0,717.0,709.0,691.0
722.0,714.0,703.0,692.0
721.0,714.0,698.0,698.0
717.0,713.0,696.0,698.0
719.0,716.0,699.0,701.0
722.0,719.0,705.0,708.0
726.0,725.0,716.0,714.0
731.0,728.0,723.0,727.0
738.0,734.0,736.0,757.0
739.0,737.0,743.0,774.0
738.0,737.0,750.0,767.0
736.0,737.0,746.0,763.0
734.0,731.0,738.0,756.0
730.0,728.0,734.0,751.0
728.0,726.0,729.0,749.0
726.0,722.0,726.0,747.0
721.0,718.0,717.0,728.0
719.0,716.0,714.0,717.0
717.0,715.0,710.0,708.0
718.0,714.0,708.0,696.0
717.0,712.0,706.0,688.0
719.0,717.0,707.0,694.0
725.0,718.0,707.0,703.0
726.0,724.0,712.0,725.0
734.0,732.0,727.0,749.0
736.0,734.0,739.0,761.0
739.0,736.0,751.0,766.0
740.0,735.0,754.0,762.0
736.0,733.0,753.0,756.0
733.0,731.0,746.0,753.0
731.0,728.0,742.0,746.0
728.0,726.0,736.0,735.0
725.0,721.0,730.0,726.0
721.0,717.0,726.0,720.0
718.0,714.0,726.0,716.0
715.0,713.0,721.0,708.0
714.0,713.0,715.0,705.0
716.0,713.0,713.0,710.0
718.0,717.0,713.0,714.0
723.0,722.0,716.0,723.0
727.0,724.0,721.0,731.0
733.0,732.0,733.0,740.0
737.0,735.0,740.0,746.0
740.0,736.0,744.0,752.0
741.0,734.0,741.0,752.0
736.0,732.0,739.0,744.0
731.0,729.0,736.0,738.0
730.0,726.0,733.0,737.0
727.0,724.0,732.0,734.0
723.0,719.0,723.0,725.0
720.0,717.0,720.0,722.0
718.0,715.0,716.0,719.0
716.0,712.0,712.0,715.0
714.0,713.0,707.0,711.0
717.0,715.0,710.0,713.0
720.0,718.0,715.0,718.0
724.0,724.0,719.0,726.0
731.0,730.0,728.0,734.0
735.0,733.0,737.0,741.0
739.0,737.0,740.0,743.0
740.0,738.0,740.0,741.0
739.0,737.0,733.0,735.0
737.0,731.0,731.0,732.0
734.0,730.0,730.0,725.0
732.0,727.0,725.0,712.0
730.0,723.0,724.0,703.0
725.0,719.0,714.0,694.0
722.0,717.0,707.0,688.0
720.0,716.0,699.0,673.0
721.0,713.0,688.0,666.0
718.0,712.0,688.0,673.0
722.0,717.0,692.0,703.0
725.0,720.0,702.0,728.0
726.0,724.0,707.0,736.0
735.0,732.0,720.0,763.0
736.0,732.0,730.0,777.0
738.0,735.0,746.0,779.0
738.0,735.0,758.0,770.0
733.0,734.0,756.0,752.0
734.0,730.0,747.0,743.0
731.0,728.0,738.0,736.0
729.0,727.0,732.0,733.0
725.0,720.0,730.0,738.0
719.0,716.0,728.0,737.0
717.0,715.0,725.0,732.0
714.0,714.0,717.0,722.0
713.0,712.0,711.0,723.0
714.0,712.0,716.0,725.0
717.0,715.0,720.0,724.0
723.0,720.0,725.0,730.0
724.0,724.0,729.0,732.0
732.0,731.0,740.0,743.0
736.0,734.0,746.0,750.0
740.0,736.0,751.0,751.0
740.0,735.0,750.0,746.0
734.0,732.0,750.0,740.0
732.0,729.0,747.0,734.0
729.0,727.0,744.0,728.0
727.0,724.0,732.0,724.0
723.0,717.0,720.0,716.0
720.0,715.0,718.0,712.0
719.0,714.0,712.0,708.0
716.0,711.0,704.0,708.0
717.0,709.0,698.0,707.0
719.0,710.0,703.0,713.0
721.0,714.0,708.0,729.0
726.0,718.0,716.0,737.0
732.0,726.0,728.0,743.0
737.0,730.0,734.0,747.0
738.0,731.0,740.0,746.0
741.0,734.0,743.0,746.0
737.0,734.0,741.0,743.0
731.0,735.0,739.0,740.0
731.0,733.0,736.0,738.0
728.0,729.0,733.0,734.0
726.0,727.0,728.0,729.0
721.0,720.0,722.0,724.0
718.0,716.0,719.0,721.0
716.0,716.0,715.0,715.0
714.0,715.0,710.0,709.0
714.0,714.0,707.0,709.0
719.0,717.0,712.0,715.0
722.0,722.0,716.0,721.0
727.0,724.0,721.0,726.0
733.0,734.0,733.0,737.0
736.0,735.0,738.0,741.0
738.0,737.0,742.0,745.0
740.0,738.0,741.0,746.0
738.0,732.0,738.0,743.0
734.0,730.0,737.0,737.0
732.0,728.0,732.0,736.0
729.0,725.0,730.0,732.0
724.0,721.0,724.0,724.0
721.0,718.0,719.0,721.0
719.0,716.0,717.0,718.0
717.0,713.0,711.0,713.0
714.0,712.0,707.0,707.0
714.0,716.0,708.0,709.0
719.0,717.0,710.0,715.0
723.0,723.0,718.0,720.0
727.0,727.0,723.0,727.0
734.0,732.0,736.0,739.0
738.0,735.0,742.0,746.0
739.0,737.0,744.0,749.0
738.0,737.0,742.0,744.0
736.0,735.0,737.0,741.0
732.0,729.0,738.0,738.0
729.0,728.0,734.0,733.0
728.0,724.0,731.0,731.0
723.0,718.0,725.0,723.0
719.0,717.0,721.0,720.0
718.0,715.0,716.0,715.0
718.0,714.0,710.0,710.0
716.0,711.0,706.0,705.0
717.0,715.0,707.0,706.0
721.0,719.0,711.0,712.0
724.0,723.0,719.0,718.0
731.0,733.0,729.0,731.0
735.0,732.0,736.0,739.0
738.0,735.0,743.0,745.0
740.0,735.0,745.0,749.0
736.0,734.0,740.0,743.0
733.0,732.0,736.0,741.0
732.0,730.0,735.0,740.0
729.0,728.0,731.0,734.0
727.0,724.0,727.0,730.0
722.0,718.0,721.0,723.0
719.0,715.0,718.0,721.0
716.0,714.0,713.0,718.0
715.0,714.0,706.0,714.0
715.0,714.0,705.0,714.0
719.0,717.0,709.0,713.0
725.0,722.0,712.0,716.0
728.0,724.0,717.0,719.0
734.0,732.0,732.0,728.0
738.0,735.0,739.0,731.0
739.0,738.0,745.0,732.0
743.0,738.0,746.0,739.0
737.0,732.0,740.0,742.0
733.0,731.0,734.0,744.0
732.0,728.0,732.0,738.0
728.0,725.0,729.0,728.0
724.0,721.0,718.0,718.0
722.0,718.0,716.0,718.0
720.0,716.0,713.0,716.0
718.0,712.0,708.0,710.0
715.0,713.0,705.0,707.0
717.0,716.0,707.0,708.0
720.0,717.0,713.0,712.0
723.0,723.0,721.0,725.0
726.0,727.0,729.0,731.0
734.0,733.0,740.0,742.0
738.0,735.0,747.0,749.0
739.0,738.0,748.0,751.0
737.0,738.0,745.0,745.0
735.0,733.0,741.0,747.0
732.0,730.0,740.0,747.0
729.0,728.0,736.0,741.0
728.0,724.0,733.0,734.0
723.0,719.0,725.0,730.0
721.0,718.0,719.0,730.0
719.0,715.0,712.0,726.0
717.0,715.0,706.0,722.0
716.0,712.0,701.0,718.0
717.0,717.0,707.0,716.0
722.0,720.0,714.0,718.0
723.0,723.0,725.0,723.0
732.0,732.0,735.0,733.0
735.0,734.0,739.0,738.0
739.0,735.0,742.0,742.0
740.0,736.0,743.0,744.0
736.0,735.0,738.0,737.0
733.0,732.0,734.0,735.0
732.0,729.0,732.0,733.0
728.0,728.0,729.0,728.0
727.0,724.0,726.0,726.0
722.0,719.0,720.0,721.0
719.0,716.0,719.0,720.0
716.0,714.0,716.0,713.0
715.0,715.0,712.0,708.0
716.0,713.0,709.0,710.0
719.0,717.0,714.0,713.0
723.0,721.0,718.0,720.0
726.0,724.0,724.0,727.0
734.0,732.0,734.0,737.0
737.0,736.0,740.0,743.0
739.0,738.0,743.0,746.0
742.0,737.0,742.0,747.0
737.0,733.0,738.0,742.0
732.0,731.0,736.0,736.0
730.0,727.0,732.0,732.0
727.0,726.0,728.0,726.0
723.0,720.0,719.0,718.0
721.0,717.0,716.0,716.0
720.0,716.0,712.0,711.0
717.0,713.0,707.0,707.0
714.0,714.0,703.0,704.0
716.0,717.0,705.0,711.0
719.0,718.0,715.0,717.0
724.0,724.0,724.0,726.0
727.0,725.0,731.0,732.0
734.0,734.0,741.0,740.0
737.0,737.0,745.0,745.0
739.0,740.0,747.0,747.0
739.0,738.0,741.0,745.0
735.0,732.0,739.0,743.0
733.0,730.0,736.0,737.0
731.0,727.0,732.0,733.0
727.0,724.0,730.0,733.0
722.0,720.0,724.0,727.0
721.0,718.0,721.0,723.0
719.0,715.0,717.0,717.0
717.0,714.0,712.0,713.0
715.0,712.0,710.0,708.0
718.0,717.0,713.0,713.0
722.0,720.0,718.0,720.0
726.0,725.0,723.0,724.0
735.0,733.0,733.0,738.0
736.0,734.0,738.0,744.0
739.0,736.0,741.0,748.0
739.0,737.0,743.0,748.0
735.0,735.0,740.0,742.0
734.0,732.0,736.0,739.0
732.0,729.0,735.0,734.0
730.0,726.0,728.0,727.0
728.0,722.0,723.0,721.0
722.0,718.0,718.0,711.0
719.0,716.0,716.0,708.0
717.0,715.0,710.0,699.0
717.0,715.0,703.0,693.0
718.0,713.0,701.0,700.0
720.0,716.0,706.0,710.0
726.0,721.0,714.0,721.0
727.0,724.0,725.0,726.0
734.0,732.0,736.0,735.0
738.0,736.0,741.0,746.0
740.0,737.0,744.0,758.0
742.0,737.0,746.0,757.0
736.0,733.0,743.0,746.0
733.0,731.0,739.0,739.0
730.0,728.0,737.0,746.0
726.0,726.0,732.0,742.0
721.0,719.0,723.0,731.0
719.0,718.0,722.0,726.0
718.0,716.0,718.0,722.0
716.0,715.0,712.0,717.0
714.0,717.0,708.0,712.0
717.0,717.0,710.0,715.0
720.0,720.0,715.0,718.0
725.0,726.0,721.0,725.0
729.0,729.0,727.0,732.0
734.0,735.0,738.0,741.0
738.0,738.0,743.0,746.0
740.0,741.0,746.0,749.0
740.0,739.0,741.0,749.0
736.0,733.0,739.0,745.0
732.0,732.0,735.0,739.0
730.0,727.0,731.0,733.0
727.0,726.0,729.0,729.0
722.0,720.0,722.0,721.0
719.0,718.0,719.0,719.0
717.0,716.0,715.0,717.0
718.0,714.0,711.0,711.0
714.0,714.0,710.0,708.0
718.0,719.0,713.0,713.0
723.0,721.0,718.0,719.0
726.0,726.0,720.0,722.0
735.0,733.0,731.0,736.0
737.0,734.0,735.0,739.0
739.0,738.0,740.0,742.0
739.0,739.0,741.0,740.0
737.0,738.0,736.0,736.0
735.0,734.0,735.0,737.0
732.0,731.0,736.0,734.0
729.0,727.0,733.0,729.0
725.0,723.0,728.0,722.0
723.0,721.0,722.0,721.0
719.0,717.0,719.0,720.0
717.0,716.0,713.0,713.0
721.0,718.0,718.0,717.0
726.0,723.0,722.0,724.0
732.0,729.0,732.0,734.0
736.0,732.0,739.0,741.0
739.0,735.0,744.0,745.0
739.0,738.0,746.0,746.0
739.0,735.0,741.0,743.0
736.0,730.0,738.0,741.0
734.0,729.0,737.0,738.0
731.0,725.0,732.0,735.0
727.0,723.0,730.0,729.0
722.0,717.0,723.0,723.0
719.0,715.0,719.0,719.0
719.0,713.0,715.0,715.0
718.0,713.0,710.0,711.0
717.0,712.0,710.0,711.0
720.0,716.0,714.0,714.0
724.0,719.0,720.0,723.0
726.0,724.0,725.0,726.0
734.0,731.0,736.0,737.0
736.0,733.0,741.0,744.0
739.0,734.0,744.0,747.0
741.0,735.0,745.0,749.0
737.0,732.0,741.0,742.0
733.0,730.0,738.0,738.0
732.0,727.0,735.0,735.0
728.0,725.0,731.0,731.0
725.0,720.0,724.0,724.0
722.0,714.0,720.0,723.0
720.0,715.0,718.0,719.0
716.0,712.0,713.0,713.0
715.0,713.0,709.0,707.0
718.0,713.0,711.0,712.0
720.0,717.0,716.0,716.0
724.0,722.0,721.0,721.0
729.0,725.0,726.0,728.0
734.0,733.0,737.0,738.0
739.0,735.0,743.0,745.0
740.0,737.0,745.0,745.0
739.0,737.0,742.0,743.0
736.0,732.0,739.0,742.0
733.0,729.0,735.0,738.0
730.0,726.0,731.0,736.0
728.0,724.0,729.0,731.0
724.0,718.0,723.0,722.0
721.0,717.0,720.0,720.0
719.0,714.0,718.0,719.0
718.0,713.0,713.0,715.0
716.0,711.0,712.0,711.0
718.0,715.0,715.0,713.0
723.0,718.0,720.0,720.0
725.0,722.0,725.0,725.0
733.0,731.0,733.0,735.0
736.0,733.0,739.0,741.0
739.0,735.0,744.0,747.0
741.0,736.0,746.0,749.0
737.0,733.0,743.0,741.0
734.0,732.0,739.0,739.0
732.0,728.0,737.0,738.0
729.0,726.0,734.0,733.0
727.0,723.0,730.0,730.0
723.0,718.0,724.0,723.0
719.0,715.0,720.0,719.0
717.0,713.0,717.0,715.0
716.0,713.0,712.0,709.0
717.0,715.0,709.0,709.0
720.0,716.0,714.0,715.0
724.0,722.0,719.0,721.0
728.0,724.0,723.0,726.0
735.0,732.0,735.0,738.0
737.0,734.0,740.0,744.0
739.0,736.0,745.0,748.0
738.0,738.0,745.0,745.0
737.0,734.0,738.0,743.0
734.0,730.0,736.0,739.0
731.0,728.0,735.0,737.0
730.0,725.0,730.0,734.0
725.0,719.0,725.0,724.0
722.0,717.0,724.0,724.0
720.0,716.0,722.0,720.0
717.0,715.0,719.0,712.0
717.0,713.0,712.0,710.0
718.0,713.0,711.0,712.0
720.0,718.0,714.0,716.0
726.0,722.0,720.0,723.0
728.0,725.0,726.0,728.0
735.0,733.0,735.0,738.0
738.0,735.0,741.0,747.0
741.0,738.0,743.0,749.0
741.0,734.0,739.0,747.0
736.0,730.0,739.0,742.0
734.0,729.0,736.0,737.0
731.0,725.0,734.0,733.0
727.0,724.0,732.0,731.0
723.0,719.0,724.0,724.0
721.0,716.0,722.0,722.0
719.0,715.0,718.0,716.0
717.0,712.0,714.0,713.0
716.0,713.0,709.0,709.0
719.0,716.0,712.0,714.0
721.0,719.0,719.0,719.0
725.0,724.0,723.0,724.0
733.0,732.0,733.0,735.0
737.0,732.0,740.0,741.0
738.0,737.0,744.0,744.0
739.0,737.0,747.0,745.0
737.0,736.0,740.0,741.0
736.0,731.0,739.0,740.0
733.0,729.0,737.0,736.0
731.0,726.0,732.0,733.0
726.0,722.0,730.0,729.0
722.0,718.0,724.0,723.0
720.0,715.0,720.0,720.0
718.0,714.0,716.0,714.0
719.0,714.0,709.0,710.0
717.0,712.0,710.0,711.0
720.0,715.0,716.0,715.0
726.0,719.0,718.0,722.0
727.0,723.0,723.0,726.0
735.0,732.0,732.0,737.0
738.0,735.0,738.0,744.0
740.0,737.0,742.0,747.0
742.0,735.0,742.0,749.0
736.0,732.0,739.0,742.0
734.0,730.0,738.0,739.0
732.0,727.0,736.0,737.0
727.0,726.0,735.0,732.0
724.0,720.0,727.0,726.0
722.0,717.0,724.0,723.0
719.0,716.0,721.0,718.0
718.0,713.0,715.0,712.0
715.0,714.0,711.0,705.0
716.0,715.0,711.0,708.0
720.0,718.0,715.0,713.0
725.0,723.0,722.0,720.0
727.0,726.0,727.0,728.0
735.0,732.0,738.0,741.0
738.0,735.0,746.0,747.0
739.0,738.0,748.0,748.0
738.0,737.0,741.0,743.0
736.0,733.0,736.0,741.0
734.0,729.0,733.0,738.0
731.0,727.0,731.0,735.0
729.0,723.0,729.0,730.0
722.0,719.0,724.0,724.0
721.0,717.0,723.0,723.0
719.0,715.0,718.0,719.0
720.0,714.0,712.0,714.0
718.0,711.0,709.0,711.0
719.0,716.0,713.0,715.0
722.0,719.0,717.0,720.0
725.0,722.0,724.0,726.0
732.0,732.0,734.0,737.0
736.0,733.0,740.0,743.0
739.0,735.0,744.0,746.0
740.0,735.0,745.0,745.0
736.0,734.0,742.0,739.0
735.0,732.0,740.0,739.0
732.0,729.0,739.0,737.0
729.0,727.0,736.0,732.0
728.0,722.0,730.0,730.0
722.0,717.0,724.0,723.0
719.0,714.0,721.0,719.0
717.0,713.0,716.0,716.0
716.0,715.0,711.0,708.0
718.0,713.0,709.0,710.0
719.0,717.0,713.0,715.0
724.0,722.0,720.0,721.0
728.0,723.0,723.0,725.0
735.0,731.0,737.0,738.0
737.0,735.0,740.0,743.0
740.0,737.0,745.0,747.0
741.0,738.0,743.0,746.0
738.0,733.0,740.0,741.0
734.0,728.0,738.0,739.0
732.0,728.0,735.0,736.0
728.0,724.0,732.0,733.0
724.0,719.0,725.0,723.0
722.0,717.0,721.0,723.0
720.0,715.0,718.0,719.0
719.0,714.0,712.0,714.0
717.0,711.0,709.0,711.0
717.0,714.0,712.0,711.0
721.0,718.0,715.0,717.0
725.0,721.0,723.0,723.0
729.0,727.0,727.0,728.0
735.0,732.0,737.0,740.0
740.0,735.0,744.0,746.0
741.0,736.0,747.0,748.0
738.0,736.0,744.0,742.0
735.0,733.0,738.0,738.0
733.0,730.0,736.0,736.0
730.0,727.0,734.0,733.0
730.0,725.0,729.0,732.0
723.0,718.0,723.0,723.0
722.0,715.0,722.0,723.0
718.0,715.0,718.0,720.0
717.0,715.0,715.0,715.0
717.0,713.0,711.0,712.0
720.0,716.0,714.0,715.0
723.0,720.0,720.0,719.0
727.0,722.0,724.0,721.0
733.0,732.0,733.0,731.0
736.0,733.0,738.0,736.0
739.0,736.0,742.0,742.0
739.0,737.0,740.0,744.0
739.0,732.0,736.0,740.0
736.0,730.0,736.0,736.0
733.0,728.0,733.0,734.0
730.0,724.0,729.0,733.0
727.0,721.0,726.0,731.0
722.0,716.0,723.0,728.0
720.0,714.0,720.0,725.0
718.0,712.0,715.0,719.0
718.0,710.0,712.0,714.0
716.0,713.0,713.0,711.0
720.0,717.0,715.0,717.0
724.0,721.0,723.0,723.0
727.0,725.0,726.0,727.0
733.0,733.0,737.0,740.0
737.0,734.0,742.0,746.0
739.0,737.0,745.0,749.0
740.0,735.0,745.0,749.0
735.0,733.0,742.0,742.0
733.0,729.0,738.0,738.0
731.0,727.0,733.0,735.0
728.0,725.0,728.0,732.0
723.0,719.0,721.0,725.0
721.0,717.0,721.0,723.0
720.0,716.0,718.0,718.0
717.0,713.0,714.0,713.0
715.0,714.0,710.0,708.0
717.0,714.0,711.0,713.0
721.0,718.0,716.0,719.0
726.0,723.0,722.0,724.0
730.0,727.0,726.0,732.0
735.0,733.0,737.0,742.0
739.0,735.0,743.0,747.0
740.0,737.0,745.0,748.0
738.0,737.0,739.0,743.0
736.0,731.0,735.0,740.0
733.0,729.0,734.0,736.0
731.0,726.0,730.0,732.0
728.0,723.0,731.0,729.0
723.0,718.0,724.0,722.0
719.0,716.0,721.0,720.0
719.0,714.0,718.0,718.0
719.0,714.0,714.0,714.0
717.0,711.0,711.0,711.0
718.0,716.0,715.0,714.0
723.0,718.0,720.0,721.0
726.0,722.0,726.0,727.0
734.0,732.0,738.0,736.0
736.0,732.0,742.0,742.0
739.0,734.0,746.0,747.0
741.0,735.0,747.0,748.0
737.0,733.0,743.0,742.0
734.0,732.0,739.0,738.0
732.0,728.0,737.0,737.0
728.0,726.0,734.0,735.0
727.0,721.0,727.0,729.0
724.0,718.0,722.0,722.0
719.0,714.0,719.0,719.0
717.0,712.0,714.0,714.0
715.0,713.0,710.0,708.0
717.0,715.0,709.0,712.0
720.0,717.0,713.0,715.0
723.0,723.0,719.0,721.0
729.0,724.0,724.0,727.0
735.0,731.0,735.0,738.0
737.0,734.0,741.0,744.0
740.0,736.0,746.0,746.0
740.0,738.0,744.0,746.0
738.0,732.0,739.0,743.0
734.0,728.0,738.0,738.0
731.0,727.0,734.0,736.0
729.0,723.0,733.0,733.0
723.0,719.0,725.0,724.0
721.0,716.0,722.0,723.0
720.0,715.0,719.0,719.0
720.0,713.0,711.0,713.0
717.0,712.0,709.0,710.0
717.0,713.0,710.0,712.0
721.0,716.0,714.0,716.0
724.0,722.0,722.0,722.0
729.0,726.0,727.0,728.0
736.0,732.0,737.0,740.0
738.0,735.0,743.0,746.0
742.0,735.0,744.0,750.0
737.0,734.0,743.0,744.0
734.0,732.0,738.0,739.0
733.0,728.0,736.0,739.0
729.0,727.0,735.0,733.0
729.0,724.0,730.0,730.0
723.0,719.0,723.0,723.0
721.0,715.0,718.0,720.0
718.0,715.0,713.0,717.0
718.0,716.0,710.0,712.0
717.0,713.0,707.0,712.0
720.0,716.0,712.0,715.0
723.0,720.0,718.0,721.0
727.0,722.0,723.0,726.0
734.0,731.0,735.0,736.0
736.0,733.0,740.0,742.0
739.0,735.0,744.0,744.0
742.0,736.0,744.0,743.0
739.0,732.0,743.0,737.0
735.0,729.0,742.0,734.0
733.0,727.0,739.0,732.0
729.0,724.0,735.0,728.0
726.0,721.0,728.0,724.0
722.0,716.0,723.0,718.0
720.0,714.0,719.0,718.0
719.0,711.0,713.0,718.0
717.0,711.0,709.0,714.0
716.0,713.0,709.0,717.0
721.0,717.0,712.0,720.0
723.0,722.0,720.0,725.0
727.0,726.0,722.0,729.0
734.0,733.0,733.0,741.0
738.0,735.0,738.0,747.0
739.0,736.0,742.0,749.0
738.0,737.0,742.0,746.0
736.0,733.0,738.0,742.0
733.0,729.0,736.0,740.0
731.0,728.0,736.0,736.0
729.0,725.0,733.0,734.0
721.0,718.0,724.0,726.0
721.0,717.0,721.0,724.0
719.0,716.0,716.0,719.0
717.0,714.0,713.0,713.0
717.0,714.0,708.0,711.0
718.0,714.0,710.0,714.0
722.0,719.0,715.0,717.0
726.0,721.0,725.0,724.0
730.0,727.0,732.0,731.0
736.0,732.0,743.0,740.0
739.0,736.0,745.0,745.0
742.0,738.0,745.0,747.0
741.0,734.0,741.0,745.0
737.0,729.0,740.0,741.0
733.0,729.0,737.0,739.0
730.0,725.0,733.0,735.0
728.0,724.0,728.0,730.0
724.0,718.0,722.0,722.0
721.0,715.0,718.0,720.0
719.0,713.0,715.0,715.0
719.0,712.0,712.0,712.0
714.0,712.0,711.0,710.0
719.0,716.0,713.0,714.0
722.0,719.0,720.0,720.0
726.0,725.0,725.0,723.0
736.0,732.0,736.0,737.0
738.0,733.0,740.0,742.0
739.0,735.0,744.0,745.0
739.0,736.0,745.0,746.0
736.0,735.0,740.0,740.0
734.0,731.0,736.0,740.0
731.0,729.0,735.0,736.0
730.0,726.0,730.0,734.0
726.0,722.0,727.0,727.0
720.0,717.0,721.0,723.0
719.0,714.0,719.0,720.0
717.0,714.0,713.0,713.0
717.0,714.0,707.0,710.0
719.0,713.0,710.0,712.0
720.0,716.0,714.0,715.0
725.0,721.0,720.0,722.0
728.0,724.0,726.0,726.0
735.0,730.0,735.0,739.0
738.0,735.0,742.0,745.0
740.0,736.0,745.0,749.0
742.0,735.0,743.0,748.0
737.0,731.0,740.0,744.0
734.0,729.0,737.0,739.0
732.0,726.0,734.0,737.0
728.0,723.0,732.0,733.0
723.0,718.0,723.0,724.0
723.0,717.0,720.0,722.0
720.0,715.0,717.0,717.0
718.0,711.0,713.0,714.0
715.0,712.0,709.0,708.0
717.0,715.0,710.0,711.0
721.0,718.0,716.0,717.0
725.0,723.0,722.0,722.0
731.0,727.0,729.0,731.0
736.0,733.0,738.0,740.0
738.0,735.0,745.0,745.0
741.0,736.0,749.0,746.0
737.0,735.0,745.0,741.0
735.0,731.0,739.0,740.0
733.0,729.0,739.0,737.0
729.0,726.0,733.0,733.0
729.0,722.0,728.0,732.0
723.0,718.0,722.0,725.0
719.0,715.0,719.0,720.0
717.0,715.0,716.0,716.0
718.0,714.0,711.0,710.0
718.0,711.0,709.0,711.0
720.0,717.0,713.0,714.0
724.0,719.0,718.0,720.0
727.0,722.0,724.0,725.0
735.0,732.0,735.0,736.0
737.0,733.0,740.0,741.0
740.0,736.0,743.0,747.0
741.0,736.0,742.0,748.0
738.0,731.0,740.0,744.0
733.0,730.0,738.0,738.0
732.0,728.0,736.0,738.0
729.0,725.0,734.0,734.0
726.0,721.0,727.0,729.0
722.0,717.0,723.0,725.0
720.0,715.0,718.0,720.0
719.0,712.0,714.0,717.0
716.0,712.0,712.0,711.0
717.0,715.0,713.0,713.0
721.0,716.0,717.0,717.0
724.0,722.0,723.0,723.0
728.0,725.0,728.0,727.0
735.0,731.0,736.0,738.0
739.0,734.0,743.0,744.0
740.0,736.0,745.0,747.0
738.0,737.0,742.0,745.0
736.0,732.0,738.0,743.0
734.0,728.0,733.0,739.0
730.0,727.0,730.0,736.0
729.0,724.0,730.0,732.0
722.0,718.0,724.0,724.0
721.0,716.0,723.0,720.0
720.0,714.0,719.0,717.0
717.0,714.0,713.0,711.0
717.0,713.0,707.0,710.0
720.0,714.0,709.0,713.0
722.0,717.0,713.0,717.0
727.0,721.0,719.0,724.0
730.0,727.0,728.0,730.0
736.0,734.0,738.0,739.0
739.0,735.0,745.0,745.0
741.0,738.0,747.0,747.0
741.0,735.0,742.0,745.0
736.0,730.0,740.0,741.0
732.0,728.0,738.0,739.0
732.0,724.0,734.0,736.0
727.0,723.0,732.0,731.0
723.0,718.0,725.0,725.0
721.0,715.0,721.0,722.0
719.0,714.0,716.0,717.0
718.0,712.0,711.0,712.0
716.0,713.0,709.0,709.0
719.0,717.0,713.0,715.0
724.0,719.0,719.0,721.0
726.0,724.0,721.0,724.0
735.0,733.0,731.0,736.0
737.0,734.0,736.0,742.0
739.0,736.0,742.0,747.0
739.0,735.0,742.0,746.0
735.0,733.0,740.0,740.0
734.0,731.0,738.0,739.0
732.0,728.0,738.0,735.0
729.0,725.0,733.0,730.0
726.0,721.0,727.0,725.0
720.0,717.0,724.0,721.0
721.0,715.0,719.0,720.0
717.0,713.0,714.0,713.0
716.0,713.0,709.0,708.0
719.0,713.0,708.0,710.0
720.0,716.0,714.0,715.0
726.0,722.0,718.0,718.0
728.0,724.0,726.0,725.0
736.0,732.0,736.0,736.0
739.0,735.0,743.0,741.0
742.0,738.0,746.0,744.0
742.0,736.0,742.0,744.0
738.0,731.0,739.0,743.0
733.0,728.0,737.0,742.0
732.0,727.0,734.0,741.0
727.0,724.0,733.0,736.0
723.0,718.0,725.0,726.0
721.0,717.0,723.0,722.0
720.0,715.0,717.0,719.0
719.0,712.0,712.0,715.0
716.0,712.0,709.0,710.0
718.0,714.0,712.0,713.0
722.0,717.0,717.0,720.0
725.0,723.0,723.0,725.0
732.0,729.0,731.0,734.0
736.0,732.0,738.0,743.0
738.0,735.0,743.0,746.0
739.0,736.0,747.0,750.0
737.0,734.0,741.0,743.0
736.0,730.0,736.0,741.0
733.0,728.0,735.0,737.0
730.0,725.0,732.0,732.0
728.0,721.0,730.0,729.0
724.0,717.0,725.0,723.0
720.0,714.0,722.0,722.0
719.0,713.0,717.0,718.0
718.0,714.0,710.0,713.0
718.0,712.0,709.0,711.0
720.0,716.0,714.0,715.0
724.0,720.0,718.0,722.0
727.0,723.0,723.0,728.0
735.0,732.0,736.0,739.0
737.0,733.0,740.0,743.0
740.0,736.0,744.0,748.0
742.0,737.0,743.0,749.0
739.0,732.0,740.0,742.0
734.0,730.0,737.0,738.0
732.0,728.0,733.0,736.0
729.0,725.0,731.0,731.0
725.0,720.0,725.0,725.0
722.0,717.0,722.0,720.0
720.0,715.0,720.0,720.0
718.0,712.0,716.0,716.0
716.0,712.0,712.0,710.0
717.0,715.0,711.0,712.0
721.0,717.0,715.0,718.0
724.0,722.0,722.0,722.0
728.0,725.0,728.0,728.0
735.0,732.0,739.0,738.0
739.0,734.0,745.0,744.0
740.0,736.0,750.0,747.0
738.0,737.0,746.0,743.0
737.0,733.0,741.0,742.0
734.0,728.0,738.0,740.0
731.0,728.0,733.0,737.0
728.0,723.0,728.0,734.0
724.0,718.0,722.0,728.0
721.0,716.0,721.0,723.0
720.0,716.0,716.0,719.0
719.0,714.0,709.0,713.0
718.0,712.0,704.0,711.0
719.0,715.0,709.0,714.0
722.0,719.0,713.0,720.0
726.0,722.0,722.0,722.0
731.0,729.0,731.0,732.0
736.0,732.0,738.0,742.0
739.0,735.0,744.0,747.0
743.0,735.0,746.0,750.0
739.0,733.0,745.0,744.0
734.0,731.0,742.0,738.0
734.0,729.0,737.0,738.0
729.0,726.0,736.0,733.0
728.0,723.0,730.0,729.0
723.0,718.0,724.0,723.0
720.0,715.0,720.0,721.0
718.0,713.0,715.0,717.0
716.0,713.0,712.0,712.0
716.0,714.0,708.0,711.0
720.0,717.0,713.0,716.0
723.0,722.0,718.0,720.0
728.0,724.0,723.0,726.0
736.0,732.0,735.0,738.0
736.0,733.0,739.0,743.0
740.0,736.0,740.0,746.0
740.0,739.0,741.0,744.0
740.0,734.0,735.0,742.0
735.0,729.0,737.0,738.0
733.0,728.0,736.0,736.0
730.0,724.0,732.0,734.0
725.0,720.0,726.0,725.0
721.0,718.0,723.0,722.0
721.0,715.0,720.0,722.0
719.0,714.0,712.0,714.0
717.0,712.0,710.0,712.0
717.0,713.0,712.0,711.0
720.0,717.0,715.0,717.0
725.0,721.0,723.0,724.0
728.0,726.0,727.0,727.0
735.0,731.0,737.0,740.0
739.0,736.0,743.0,746.0
741.0,736.0,745.0,749.0
741.0,734.0,744.0,746.0
735.0,731.0,741.0,740.0
733.0,729.0,738.0,737.0
730.0,726.0,736.0,734.0
728.0,725.0,731.0,731.0
723.0,719.0,723.0,725.0
720.0,716.0,721.0,722.0
719.0,715.0,718.0,718.0
716.0,714.0,713.0,712.0
716.0,713.0,709.0,709.0
720.0,716.0,711.0,714.0
721.0,719.0,717.0,718.0
728.0,723.0,721.0,726.0
733.0,730.0,732.0,736.0
735.0,734.0,739.0,741.0
739.0,736.0,742.0,746.0
741.0,739.0,744.0,747.0
739.0,735.0,739.0,747.0
736.0,729.0,739.0,741.0
734.0,729.0,735.0,737.0
731.0,725.0,731.0,736.0
727.0,724.0,728.0,731.0
723.0,718.0,721.0,724.0
721.0,715.0,718.0,720.0
720.0,712.0,714.0,717.0
718.0,712.0,710.0,714.0
716.0,712.0,710.0,711.0
720.0,717.0,712.0,716.0
724.0,719.0,719.0,721.0
727.0,724.0,723.0,725.0
736.0,732.0,736.0,737.0
737.0,734.0,743.0,743.0
740.0,736.0,746.0,746.0
740.0,737.0,746.0,744.0
735.0,736.0,741.0,740.0
734.0,731.0,737.0,739.0
731.0,728.0,735.0,736.0
729.0,725.0,732.0,733.0
724.0,720.0,726.0,726.0
723.0,717.0,723.0,722.0
720.0,717.0,719.0,719.0
717.0,715.0,713.0,713.0
717.0,714.0,708.0,709.0
719.0,713.0,710.0,712.0
720.0,718.0,714.0,717.0
726.0,722.0,719.0,724.0
728.0,725.0,726.0,728.0
734.0,733.0,736.0,738.0
739.0,736.0,743.0,747.0
740.0,737.0,746.0,749.0
741.0,735.0,744.0,748.0
738.0,731.0,742.0,742.0
734.0,729.0,739.0,738.0
732.0,726.0,735.0,735.0
727.0,724.0,733.0,733.0
723.0,718.0,724.0,724.0
722.0,717.0,720.0,722.0
719.0,715.0,717.0,717.0
718.0,712.0,711.0,714.0
716.0,710.0,710.0,710.0
719.0,716.0,713.0,712.0
723.0,718.0,719.0,720.0
725.0,723.0,725.0,724.0
733.0,732.0,734.0,735.0
736.0,733.0,739.0,742.0
739.0,737.0,743.0,747.0
741.0,737.0,746.0,748.0
737.0,735.0,741.0,741.0
736.0,733.0,737.0,736.0
733.0,729.0,732.0,733.0
729.0,727.0,728.0,729.0
728.0,723.0,725.0,725.0
723.0,719.0,719.0,719.0
719.0,717.0,718.0,716.0
717.0,714.0,714.0,711.0
717.0,715.0,709.0,707.0
717.0,714.0,709.0,713.0
721.0,717.0,714.0,719.0
725.0,722.0,719.0,725.0
729.0,724.0,724.0,730.0
735.0,732.0,735.0,739.0
736.0,735.0,740.0,744.0
740.0,737.0,744.0,748.0
741.0,738.0,745.0,747.0
739.0,732.0,741.0,744.0
734.0,730.0,739.0,741.0
733.0,728.0,736.0,737.0
729.0,725.0,730.0,735.0
724.0,720.0,721.0,726.0
722.0,717.0,717.0,725.0
721.0,716.0,716.0,722.0
719.0,713.0,710.0,716.0
717.0,712.0,709.0,711.0
717.0,714.0,712.0,712.0
721.0,718.0,716.0,717.0
725.0,721.0,723.0,723.0
728.0,727.0,728.0,729.0
735.0,733.0,738.0,740.0
739.0,735.0,744.0,747.0
741.0,737.0,747.0,749.0
738.0,736.0,744.0,744.0
736.0,733.0,739.0,740.0
734.0,730.0,737.0,738.0
730.0,729.0,733.0,733.0
729.0,724.0,728.0,733.0
724.0,719.0,723.0,725.0
720.0,717.0,720.0,722.0
719.0,716.0,717.0,717.0
718.0,716.0,711.0,714.0
717.0,714.0,707.0,711.0
719.0,716.0,712.0,715.0
723.0,721.0,716.0,721.0
728.0,722.0,722.0,727.0
734.0,731.0,733.0,735.0
737.0,733.0,739.0,741.0
740.0,736.0,742.0,746.0
742.0,736.0,742.0,747.0
740.0,733.0,739.0,745.0
734.0,730.0,738.0,742.0
733.0,729.0,734.0,738.0
730.0,725.0,732.0,735.0
726.0,722.0,728.0,730.0
723.0,718.0,721.0,723.0
721.0,716.0,717.0,719.0
720.0,714.0,713.0,716.0
718.0,712.0,710.0,716.0
716.0,713.0,711.0,713.0
720.0,717.0,714.0,716.0
723.0,721.0,722.0,719.0
727.0,725.0,726.0,725.0
735.0,732.0,736.0,737.0
738.0,734.0,741.0,745.0
739.0,737.0,745.0,746.0
740.0,734.0,746.0,746.0
736.0,733.0,741.0,741.0
733.0,730.0,736.0,738.0
732.0,728.0,734.0,735.0
729.0,725.0,731.0,733.0
726.0,719.0,726.0,725.0
721.0,717.0,724.0,722.0
720.0,717.0,719.0,719.0
717.0,716.0,713.0,711.0
716.0,715.0,708.0,709.0
719.0,714.0,710.0,713.0
722.0,719.0,713.0,716.0
725.0,723.0,719.0,725.0
729.0,727.0,726.0,729.0
735.0,734.0,736.0,740.0
740.0,735.0,742.0,748.0
742.0,738.0,744.0,750.0
741.0,735.0,741.0,748.0
737.0,732.0,740.0,743.0
734.0,730.0,737.0,740.0
731.0,726.0,735.0,736.0
728.0,725.0,730.0,730.0
724.0,719.0,723.0,724.0
721.0,717.0,721.0,722.0
719.0,714.0,721.0,718.0
719.0,713.0,716.0,712.0
716.0,713.0,711.0,707.0
719.0,717.0,713.0,712.0
723.0,721.0,719.0,718.0
727.0,725.0,724.0,722.0
734.0,733.0,733.0,735.0
737.0,733.0,737.0,743.0
739.0,737.0,739.0,748.0
739.0,736.0,741.0,747.0
736.0,736.0,737.0,740.0
736.0,732.0,735.0,739.0
734.0,730.0,735.0,736.0
730.0,727.0,730.0,733.0
727.0,723.0,727.0,731.0
723.0,718.0,723.0,723.0
720.0,716.0,720.0,720.0
718.0,715.0,715.0,714.0
717.0,716.0,708.0,710.0
719.0,714.0,709.0,712.0
720.0,717.0,714.0,715.0
725.0,722.0,719.0,722.0
728.0,724.0,725.0,727.0
735.0,732.0,736.0,740.0
738.0,734.0,740.0,744.0
740.0,738.0,744.0,748.0
742.0,737.0,743.0,747.0
738.0,732.0,739.0,744.0
733.0,730.0,738.0,740.0
732.0,727.0,734.0,738.0
730.0,723.0,732.0,732.0
724.0,721.0,724.0,726.0
722.0,718.0,721.0,722.0
722.0,716.0,718.0,719.0
719.0,714.0,714.0,715.0
716.0,712.0,710.0,711.0
717.0,716.0,712.0,712.0
720.0,718.0,716.0,717.0
724.0,724.0,722.0,722.0
729.0,727.0,725.0,727.0
736.0,733.0,734.0,735.0
739.0,736.0,741.0,742.0
740.0,737.0,744.0,744.0
738.0,737.0,742.0,739.0
736.0,734.0,736.0,737.0
734.0,730.0,737.0,734.0
731.0,728.0,733.0,732.0
730.0,723.0,730.0,734.0
724.0,719.0,724.0,730.0
721.0,716.0,720.0,726.0
719.0,715.0,715.0,721.0
719.0,715.0,711.0,715.0
718.0,713.0,709.0,713.0
720.0,715.0,713.0,716.0
725.0,721.0,719.0,722.0
727.0,723.0,725.0,728.0
735.0,733.0,736.0,738.0
736.0,735.0,741.0,744.0
740.0,737.0,745.0,747.0
741.0,738.0,745.0,749.0
739.0,733.0,740.0,744.0
734.0,732.0,737.0,742.0
734.0,729.0,733.0,739.0
729.0,728.0,731.0,734.0
727.0,725.0,727.0,729.0
723.0,719.0,722.0,725.0
720.0,717.0,718.0,720.0
719.0,714.0,713.0,715.0
716.0,714.0,709.0,710.0
716.0,717.0,709.0,712.0
721.0,720.0,713.0,716.0
723.0,725.0,718.0,723.0
728.0,726.0,724.0,727.0
736.0,733.0,735.0,738.0
738.0,733.0,741.0,745.0
740.0,737.0,745.0,746.0
740.0,739.0,745.0,743.0
737.0,734.0,740.0,741.0
735.0,730.0,738.0,738.0
731.0,729.0,734.0,735.0
730.0,724.0,730.0,734.0
723.0,720.0,725.0,724.0
722.0,719.0,722.0,722.0
719.0,718.0,718.0,719.0
719.0,716.0,712.0,712.0
718.0,714.0,709.0,712.0
719.0,716.0,712.0,713.0
721.0,719.0,716.0,718.0
726.0,723.0,723.0,725.0
729.0,727.0,729.0,730.0
736.0,733.0,740.0,739.0
740.0,737.0,744.0,748.0
742.0,738.0,745.0,750.0
741.0,735.0,741.0,746.0
735.0,732.0,739.0,741.0
734.0,730.0,735.0,737.0
730.0,726.0,734.0,733.0
727.0,726.0,730.0,732.0
723.0,719.0,723.0,725.0
721.0,717.0,720.0,721.0
719.0,716.0,715.0,716.0
718.0,714.0,712.0,711.0
716.0,715.0,707.0,707.0
720.0,717.0,710.0,713.0
722.0,721.0,716.0,718.0
726.0,726.0,721.0,725.0
736.0,733.0,733.0,737.0
736.0,734.0,740.0,742.0
740.0,737.0,745.0,746.0
740.0,739.0,747.0,745.0
737.0,737.0,742.0,742.0
736.0,732.0,738.0,740.0
733.0,730.0,737.0,737.0
731.0,727.0,732.0,735.0
728.0,724.0,727.0,729.0
722.0,720.0,721.0,723.0
720.0,717.0,719.0,720.0
718.0,715.0,711.0,715.0
718.0,715.0,706.0,712.0
717.0,714.0,709.0,713.0
720.0,719.0,713.0,715.0
726.0,722.0,721.0,721.0
728.0,725.0,727.0,724.0
736.0,733.0,736.0,737.0
739.0,735.0,742.0,745.0
741.0,738.0,745.0,748.0
742.0,737.0,744.0,747.0
736.0,732.0,740.0,742.0
734.0,731.0,737.0,738.0
732.0,728.0,733.0,736.0
728.0,725.0,730.0,730.0
725.0,721.0,723.0,723.0
722.0,717.0,722.0,725.0
720.0,716.0,719.0,719.0
719.0,714.0,714.0,712.0
716.0,715.0,710.0,708.0
718.0,717.0,711.0,711.0
721.0,720.0,716.0,718.0
725.0,726.0,721.0,724.0
729.0,728.0,727.0,730.0
736.0,734.0,737.0,740.0
739.0,737.0,743.0,745.0
740.0,740.0,747.0,747.0
739.0,738.0,741.0,744.0
736.0,733.0,737.0,740.0
733.0,731.0,736.0,737.0
731.0,728.0,731.0,734.0
729.0,723.0,730.0,731.0
723.0,719.0,722.0,724.0
721.0,717.0,720.0,722.0
720.0,715.0,716.0,717.0
721.0,715.0,710.0,713.0
718.0,713.0,708.0,711.0
720.0,719.0,712.0,713.0
723.0,723.0,717.0,720.0
728.0,727.0,722.0,725.0
735.0,735.0,734.0,737.0
736.0,735.0,738.0,741.0
741.0,735.0,743.0,748.0
742.0,733.0,745.0,749.0
738.0,732.0,741.0,742.0
735.0,731.0,739.0,739.0
733.0,728.0,736.0,737.0
729.0,727.0,734.0,732.0
728.0,723.0,728.0,728.0
723.0,721.0,723.0,723.0
720.0,717.0,720.0,720.0
718.0,715.0,715.0,714.0
716.0,714.0,710.0,709.0
718.0,717.0,709.0,711.0
722.0,719.0,714.0,716.0
725.0,724.0,720.0,722.0
729.0,725.0,724.0,728.0
736.0,731.0,735.0,738.0
739.0,733.0,743.0,746.0
741.0,737.0,745.0,749.0
740.0,738.0,743.0,746.0
738.0,733.0,738.0,743.0
734.0,729.0,735.0,740.0
732.0,729.0,733.0,736.0
731.0,725.0,730.0,733.0
724.0,719.0,723.0,723.0
722.0,718.0,720.0,723.0
722.0,717.0,716.0,719.0
721.0,717.0,711.0,714.0
719.0,714.0,710.0,710.0
719.0,715.0,712.0,712.0
722.0,719.0,715.0,717.0
725.0,722.0,722.0,725.0
729.0,728.0,729.0,732.0
736.0,734.0,737.0,742.0
739.0,739.0,744.0,746.0
742.0,741.0,746.0,749.0
739.0,737.0,743.0,744.0
733.0,734.0,740.0,739.0
732.0,732.0,737.0,738.0
730.0,729.0,734.0,733.0
728.0,727.0,730.0,730.0
724.0,721.0,723.0,724.0
721.0,718.0,721.0,721.0
718.0,717.0,716.0,717.0
717.0,717.0,712.0,711.0
716.0,716.0,708.0,710.0
721.0,719.0,713.0,714.0
723.0,723.0,717.0,720.0
728.0,726.0,721.0,727.0
736.0,735.0,735.0,736.0
737.0,736.0,740.0,741.0
740.0,739.0,743.0,747.0
740.0,741.0,742.0,745.0
739.0,736.0,739.0,743.0
735.0,732.0,738.0,740.0
734.0,731.0,735.0,736.0
731.0,726.0,731.0,733.0
726.0,724.0,727.0,728.0
722.0,721.0,721.0,723.0
720.0,718.0,719.0,720.0
719.0,715.0,713.0,715.0
719.0,713.0,711.0,712.0
717.0,714.0,712.0,711.0
721.0,720.0,716.0,717.0
725.0,723.0,722.0,723.0
728.0,727.0,726.0,727.0
735.0,734.0,736.0,737.0
739.0,736.0,743.0,748.0
741.0,738.0,743.0,750.0
740.0,737.0,742.0,748.0
736.0,735.0,738.0,742.0
734.0,731.0,736.0,741.0
731.0,729.0,735.0,736.0
729.0,728.0,730.0,731.0
725.0,721.0,723.0,724.0
723.0,717.0,721.0,722.0
720.0,717.0,719.0,718.0
717.0,716.0,715.0,710.0
717.0,716.0,708.0,709.0
720.0,717.0,710.0,712.0
722.0,721.0,715.0,718.0
726.0,724.0,720.0,725.0
731.0,729.0,729.0,733.0
737.0,734.0,737.0,741.0
740.0,738.0,743.0,745.0
742.0,740.0,744.0,746.0
740.0,736.0,740.0,743.0
736.0,731.0,739.0,741.0
733.0,731.0,736.0,738.0
732.0,727.0,732.0,732.0
727.0,725.0,731.0,729.0
725.0,720.0,724.0,724.0
721.0,717.0,720.0,721.0
720.0,716.0,716.0,715.0
719.0,714.0,711.0,712.0
717.0,714.0,709.0,710.0
720.0,718.0,711.0,715.0
724.0,722.0,717.0,720.0
725.0,726.0,722.0,724.0
736.0,733.0,734.0,737.0
737.0,733.0,740.0,739.0
739.0,737.0,745.0,742.0
740.0,737.0,745.0,741.0
736.0,736.0,741.0,735.0
735.0,733.0,738.0,733.0
733.0,730.0,736.0,732.0
729.0,728.0,731.0,729.0
727.0,723.0,725.0,725.0
722.0,718.0,722.0,724.0
720.0,717.0,719.0,724.0
717.0,715.0,716.0,718.0
716.0,716.0,709.0,713.0
718.0,716.0,710.0,716.0
721.0,718.0,714.0,718.0
726.0,724.0,719.0,724.0
729.0,727.0,724.0,729.0
736.0,733.0,736.0,740.0
739.0,737.0,741.0,747.0
741.0,738.0,744.0,750.0
741.0,739.0,742.0,747.0
738.0,735.0,737.0,743.0
734.0,730.0,736.0,737.0
732.0,729.0,732.0,734.0
729.0,726.0,729.0,730.0
724.0,720.0,723.0,722.0
722.0,719.0,721.0,722.0
720.0,718.0,718.0,720.0
719.0,716.0,711.0,713.0
718.0,714.0,708.0,710.0
719.0,717.0,712.0,712.0
723.0,720.0,717.0,718.0
726.0,723.0,723.0,726.0
731.0,731.0,729.0,734.0
736.0,735.0,737.0,743.0
740.0,738.0,742.0,749.0
743.0,738.0,745.0,753.0
739.0,735.0,742.0,746.0
736.0,733.0,739.0,742.0
734.0,730.0,736.0,740.0
729.0,727.0,733.0,735.0
728.0,726.0,729.0,730.0
724.0,720.0,722.0,725.0
721.0,717.0,719.0,720.0
719.0,715.0,715.0,719.0
717.0,715.0,712.0,711.0
716.0,715.0,707.0,710.0
721.0,718.0,712.0,716.0
723.0,723.0,719.0,719.0
729.0,725.0,721.0,726.0
736.0,732.0,735.0,736.0
737.0,735.0,739.0,742.0
740.0,737.0,744.0,747.0
740.0,740.0,743.0,746.0
739.0,736.0,739.0,743.0
737.0,731.0,737.0,740.0
733.0,730.0,734.0,737.0
730.0,727.0,731.0,732.0
726.0,723.0,725.0,726.0
722.0,720.0,721.0,721.0
721.0,718.0,719.0,719.0
719.0,715.0,714.0,711.0
718.0,713.0,708.0,707.0
717.0,716.0,711.0,709.0
720.0,719.0,713.0,714.0
725.0,721.0,720.0,722.0
727.0,727.0,723.0,725.0
735.0,734.0,733.0,737.0
739.0,737.0,740.0,745.0
741.0,739.0,743.0,750.0
740.0,737.0,741.0,749.0
735.0,734.0,739.0,744.0
733.0,731.0,737.0,740.0
730.0,728.0,735.0,735.0
728.0,728.0,730.0,730.0
724.0,721.0,723.0,723.0
722.0,719.0,721.0,720.0
719.0,718.0,718.0,718.0
716.0,715.0,713.0,712.0
717.0,716.0,708.0,709.0
719.0,716.0,711.0,715.0
722.0,720.0,715.0,720.0
728.0,724.0,721.0,728.0
733.0,730.0,730.0,734.0
736.0,735.0,738.0,743.0
739.0,737.0,742.0,748.0
740.0,739.0,743.0,749.0
740.0,736.0,738.0,746.0
736.0,732.0,737.0,742.0
733.0,731.0,735.0,738.0
731.0,727.0,732.0,735.0
728.0,724.0,730.0,731.0
723.0,720.0,723.0,724.0
721.0,717.0,719.0,720.0
720.0,715.0,715.0,714.0
719.0,713.0,711.0,712.0
717.0,711.0,709.0,710.0
720.0,715.0,712.0,713.0
723.0,717.0,719.0,719.0
726.0,724.0,723.0,722.0
735.0,730.0,734.0,732.0
738.0,734.0,739.0,735.0
741.0,738.0,742.0,738.0
740.0,737.0,743.0,736.0
735.0,734.0,741.0,734.0
734.0,735.0,736.0,736.0
732.0,731.0,735.0,739.0
728.0,729.0,732.0,738.0
726.0,724.0,726.0,735.0
722.0,719.0,722.0,730.0
719.0,718.0,719.0,724.0
717.0,717.0,714.0,716.0
716.0,717.0,708.0,711.0
719.0,716.0,708.0,714.0
721.0,720.0,714.0,718.0
725.0,725.0,719.0,726.0
729.0,727.0,725.0,730.0
735.0,734.0,736.0,741.0
739.0,738.0,743.0,747.0
741.0,739.0,745.0,749.0
741.0,739.0,741.0,747.0
737.0,734.0,738.0,743.0
734.0,732.0,736.0,738.0
732.0,727.0,732.0,736.0
728.0,724.0,730.0,731.0
723.0,719.0,722.0,723.0
723.0,719.0,720.0,722.0
720.0,717.0,716.0,717.0
720.0,715.0,711.0,712.0
716.0,715.0,709.0,710.0
719.0,718.0,712.0,715.0
722.0,720.0,717.0,720.0
725.0,726.0,722.0,724.0
732.0,732.0,730.0,734.0
737.0,735.0,736.0,742.0
739.0,739.0,741.0,747.0
741.0,739.0,745.0,750.0
736.0,737.0,741.0,746.0
735.0,735.0,737.0,743.0
734.0,731.0,735.0,739.0
730.0,730.0,730.0,735.0
729.0,727.0,728.0,732.0
723.0,722.0,722.0,726.0
720.0,718.0,720.0,721.0
718.0,715.0,714.0,715.0
717.0,716.0,708.0,712.0
718.0,716.0,707.0,710.0
721.0,718.0,713.0,714.0
724.0,722.0,719.0,721.0
728.0,722.0,723.0,726.0
736.0,731.0,735.0,739.0
737.0,731.0,739.0,743.0
740.0,737.0,742.0,747.0
742.0,738.0,741.0,746.0
739.0,731.0,738.0,739.0
734.0,728.0,736.0,734.0
734.0,728.0,732.0,730.0
731.0,726.0,730.0,724.0
727.0,724.0,722.0,715.0
724.0,719.0,718.0,711.0
722.0,715.0,714.0,707.0
720.0,712.0,709.0,703.0
717.0,711.0,708.0,705.0
718.0,715.0,711.0,718.0
721.0,718.0,714.0,727.0
726.0,725.0,721.0,733.0
729.0,727.0,724.0,735.0
736.0,733.0,739.0,744.0
740.0,737.0,743.0,750.0
741.0,740.0,745.0,750.0
739.0,741.0,744.0,745.0
736.0,737.0,739.0,742.0
733.0,733.0,735.0,740.0
730.0,731.0,732.0,735.0
730.0,726.0,729.0,732.0
723.0,721.0,722.0,723.0
721.0,719.0,719.0,720.0
721.0,717.0,714.0,717.0
718.0,718.0,708.0,709.0
719.0,716.0,703.0,706.0
721.0,717.0,709.0,710.0
725.0,722.0,715.0,716.0
727.0,724.0,723.0,725.0
731.0,732.0,734.0,735.0
737.0,735.0,739.0,743.0
739.0,739.0,743.0,744.0
742.0,741.0,744.0,746.0
740.0,736.0,741.0,743.0
736.0,733.0,739.0,742.0
734.0,732.0,736.0,744.0
731.0,727.0,733.0,743.0
727.0,725.0,729.0,735.0
723.0,720.0,722.0,726.0
721.0,718.0,718.0,723.0
719.0,715.0,714.0,718.0
717.0,714.0,711.0,715.0
716.0,716.0,710.0,712.0
720.0,718.0,713.0,718.0
723.0,723.0,720.0,723.0
728.0,728.0,722.0,728.0
735.0,735.0,734.0,740.0
737.0,736.0,739.0,747.0
739.0,740.0,744.0,749.0
740.0,740.0,744.0,748.0
737.0,736.0,738.0,742.0
735.0,732.0,736.0,741.0
732.0,730.0,734.0,737.0
730.0,727.0,729.0,733.0
725.0,721.0,724.0,725.0
723.0,718.0,721.0,723.0
719.0,717.0,718.0,721.0
717.0,717.0,712.0,715.0
718.0,717.0,707.0,712.0
718.0,718.0,710.0,716.0
721.0,721.0,714.0,718.0
727.0,723.0,718.0,726.0
729.0,727.0,724.0,732.0
734.0,735.0,735.0,742.0
738.0,738.0,740.0,746.0
742.0,741.0,741.0,750.0
746.0,739.0,739.0,747.0
742.0,736.0,738.0,743.0
740.0,736.0,734.0,740.0
737.0,732.0,733.0,734.0
736.0,730.0,729.0,730.0
731.0,720.0,723.0,722.0
726.0,717.0,720.0,720.0
719.0,715.0,716.0,715.0
716.0,712.0,712.0,711.0
715.0,715.0,709.0,709.0
723.0,718.0,712.0,714.0
727.0,722.0,717.0,713.0
731.0,726.0,719.0,716.0
734.0,732.0,731.0,734.0
733.0,734.0,739.0,739.0
735.0,736.0,744.0,742.0
737.0,739.0,744.0,742.0
737.0,737.0,739.0,738.0
735.0,732.0,738.0,738.0
733.0,731.0,735.0,737.0
730.0,728.0,731.0,738.0
727.0,725.0,729.0,735.0
722.0,721.0,722.0,729.0
719.0,718.0,718.0,725.0
718.0,716.0,713.0,718.0
718.0,716.0,707.0,713.0
717.0,715.0,709.0,714.0
720.0,719.0,714.0,717.0
725.0,723.0,718.0,724.0
727.0,726.0,722.0,728.0
734.0,734.0,732.0,739.0
737.0,737.0,737.0,744.0
740.0,738.0,740.0,749.0
741.0,737.0,740.0,750.0
736.0,733.0,737.0,742.0
733.0,731.0,733.0,736.0
733.0,726.0,731.0,736.0
729.0,721.0,729.0,735.0
726.0,716.0,723.0,731.0
723.0,712.0,722.0,728.0
722.0,712.0,721.0,722.0
720.0,710.0,717.0,713.0
717.0,712.0,712.0,707.0
721.0,716.0,711.0,711.0
721.0,721.0,714.0,718.0
723.0,729.0,720.0,722.0
728.0,733.0,725.0,729.0
735.0,738.0,736.0,741.0
739.0,741.0,743.0,746.0
740.0,743.0,745.0,748.0
739.0,745.0,741.0,742.0
736.0,739.0,737.0,740.0
734.0,731.0,735.0,737.0
731.0,725.0,731.0,737.0
729.0,721.0,729.0,735.0
723.0,717.0,723.0,725.0
721.0,717.0,719.0,724.0
720.0,716.0,715.0,719.0
721.0,717.0,708.0,712.0
720.0,714.0,706.0,709.0
722.0,718.0,709.0,712.0
725.0,724.0,716.0,724.0
728.0,727.0,722.0,730.0
735.0,736.0,732.0,737.0
737.0,738.0,736.0,742.0
738.0,738.0,740.0,745.0
740.0,739.0,743.0,745.0
737.0,736.0,743.0,742.0
734.0,733.0,740.0,740.0
733.0,731.0,737.0,739.0
729.0,729.0,734.0,733.0
727.0,726.0,728.0,729.0
723.0,721.0,723.0,724.0
720.0,719.0,719.0,721.0
717.0,716.0,714.0,713.0
716.0,716.0,709.0,705.0
718.0,717.0,707.0,705.0
720.0,722.0,712.0,710.0
723.0,726.0,718.0,716.0
727.0,728.0,722.0,724.0
735.0,735.0,733.0,735.0
738.0,737.0,739.0,742.0
740.0,741.0,742.0,747.0
740.0,742.0,741.0,749.0
737.0,737.0,736.0,747.0
735.0,732.0,734.0,745.0
733.0,730.0,732.0,741.0
731.0,725.0,729.0,738.0
725.0,720.0,722.0,729.0
722.0,719.0,721.0,726.0
720.0,718.0,715.0,723.0
719.0,717.0,710.0,718.0
718.0,714.0,707.0,712.0
718.0,717.0,711.0,711.0
721.0,720.0,714.0,716.0
726.0,724.0,720.0,724.0
729.0,730.0,726.0,728.0
737.0,736.0,737.0,740.0
742.0,737.0,742.0,750.0
743.0,734.0,743.0,752.0
744.0,728.0,741.0,746.0
740.0,725.0,738.0,740.0
740.0,725.0,735.0,738.0
741.0,724.0,732.0,734.0
739.0,725.0,729.0,731.0
738.0,719.0,720.0,722.0
735.0,717.0,718.0,721.0
725.0,717.0,716.0,719.0
713.0,715.0,713.0,714.0
713.0,715.0,707.0,709.0
719.0,719.0,709.0,713.0
722.0,723.0,716.0,716.0
721.0,726.0,719.0,724.0
729.0,732.0,731.0,738.0
737.0,730.0,735.0,744.0
744.0,731.0,740.0,747.0
748.0,734.0,743.0,748.0
745.0,734.0,738.0,745.0
739.0,732.0,736.0,741.0
734.0,731.0,734.0,738.0
721.0,724.0,730.0,736.0
719.0,722.0,727.0,729.0
716.0,721.0,721.0,721.0
718.0,719.0,716.0,719.0
718.0,717.0,712.0,716.0
719.0,716.0,708.0,712.0
718.0,719.0,709.0,712.0
721.0,726.0,713.0,714.0
728.0,731.0,719.0,723.0
732.0,731.0,723.0,726.0
739.0,737.0,733.0,739.0
737.0,738.0,741.0,748.0
741.0,739.0,742.0,748.0
741.0,738.0,741.0,746.0
739.0,738.0,738.0,742.0
736.0,739.0,736.0,743.0
734.0,739.0,734.0,739.0
729.0,735.0,729.0,734.0
721.0,726.0,722.0,726.0
716.0,721.0,719.0,722.0
716.0,721.0,719.0,719.0
715.0,721.0,713.0,711.0
714.0,720.0,708.0,707.0
717.0,721.0,709.0,710.0
719.0,723.0,714.0,718.0
725.0,728.0,718.0,723.0
732.0,731.0,723.0,725.0
737.0,741.0,735.0,738.0
740.0,742.0,742.0,749.0
742.0,745.0,745.0,748.0
742.0,743.0,739.0,746.0
741.0,736.0,738.0,742.0
738.0,733.0,735.0,739.0
737.0,731.0,729.0,735.0
735.0,727.0,729.0,733.0
727.0,723.0,722.0,724.0
724.0,719.0,716.0,720.0
720.0,717.0,711.0,717.0
718.0,716.0,709.0,713.0
716.0,713.0,708.0,711.0
718.0,713.0,712.0,715.0
723.0,711.0,714.0,723.0
727.0,713.0,721.0,725.0
739.0,724.0,732.0,734.0
743.0,730.0,738.0,738.0
747.0,735.0,741.0,743.0
748.0,734.0,743.0,745.0
742.0,735.0,742.0,744.0
738.0,741.0,737.0,741.0
734.0,741.0,734.0,741.0
725.0,735.0,730.0,737.0
732.0,725.0,726.0,734.0
732.0,717.0,720.0,727.0
724.0,714.0,716.0,721.0
718.0,713.0,712.0,716.0
716.0,709.0,706.0,709.0
717.0,710.0,706.0,711.0
717.0,720.0,709.0,714.0
724.0,725.0,716.0,721.0
732.0,729.0,723.0,728.0
738.0,734.0,734.0,740.0
742.0,728.0,740.0,746.0
741.0,727.0,744.0,745.0
739.0,729.0,739.0,738.0
733.0,727.0,736.0,733.0
728.0,729.0,731.0,724.0
729.0,728.0,727.0,721.0
729.0,729.0,729.0,728.0
730.0,724.0,722.0,726.0
739.0,726.0,720.0,725.0
738.0,727.0,714.0,722.0
735.0,714.0,709.0,722.0
726.0,712.0,707.0,720.0
720.0,717.0,708.0,722.0
718.0,722.0,711.0,723.0
714.0,726.0,718.0,726.0
729.0,733.0,725.0,733.0
739.0,744.0,736.0,742.0
739.0,747.0,741.0,749.0
739.0,747.0,744.0,749.0
739.0,743.0,744.0,745.0
737.0,742.0,740.0,742.0
740.0,736.0,735.0,738.0
729.0,732.0,736.0,736.0
729.0,728.0,731.0,734.0
722.0,723.0,724.0,726.0
700.0,719.0,720.0,722.0
707.0,718.0,715.0,718.0
716.0,718.0,711.0,711.0
717.0,717.0,705.0,710.0
723.0,714.0,708.0,713.0
733.0,718.0,712.0,722.0
740.0,723.0,720.0,730.0
746.0,737.0,733.0,741.0
736.0,744.0,737.0,744.0
726.0,749.0,741.0,750.0
729.0,751.0,739.0,751.0
735.0,746.0,736.0,748.0
738.0,737.0,737.0,743.0
754.0,731.0,736.0,738.0
751.0,727.0,732.0,732.0
744.0,726.0,727.0,725.0
732.0,723.0,720.0,719.0
719.0,720.0,718.0,722.0
708.0,719.0,711.0,716.0
701.0,716.0,705.0,706.0
705.0,718.0,710.0,711.0
718.0,721.0,714.0,721.0
723.0,726.0,720.0,727.0
726.0,727.0,724.0,729.0
734.0,735.0,734.0,738.0
739.0,736.0,739.0,742.0
743.0,736.0,742.0,746.0
746.0,729.0,742.0,744.0
738.0,723.0,740.0,739.0
737.0,718.0,737.0,740.0
742.0,721.0,734.0,734.0
751.0,726.0,729.0,730.0
736.0,721.0,720.0,721.0
729.0,716.0,718.0,717.0
739.0,714.0,714.0,715.0
735.0,710.0,711.0,711.0
720.0,703.0,707.0,709.0
722.0,715.0,710.0,715.0
726.0,727.0,718.0,723.0
732.0,737.0,721.0,724.0
740.0,742.0,726.0,730.0
742.0,748.0,736.0,739.0
742.0,750.0,739.0,741.0
743.0,751.0,742.0,745.0
740.0,754.0,740.0,743.0
741.0,749.0,734.0,735.0
741.0,741.0,735.0,738.0
740.0,734.0,733.0,744.0
735.0,729.0,729.0,732.0
722.0,725.0,722.0,724.0
717.0,716.0,719.0,722.0
722.0,715.0,714.0,719.0
720.0,715.0,708.0,712.0
711.0,714.0,707.0,711.0
720.0,719.0,712.0,715.0
730.0,726.0,715.0,721.0
737.0,730.0,720.0,725.0
741.0,725.0,731.0,734.0
734.0,706.0,736.0,736.0
738.0,714.0,741.0,742.0
742.0,724.0,744.0,753.0
747.0,718.0,741.0,742.0
757.0,710.0,738.0,741.0
758.0,717.0,735.0,737.0
748.0,735.0,731.0,733.0
735.0,728.0,724.0,726.0
736.0,718.0,718.0,718.0
735.0,721.0,717.0,721.0
699.0,721.0,712.0,714.0
703.0,722.0,707.0,704.0
708.0,728.0,706.0,705.0
717.0,736.0,706.0,709.0
718.0,745.0,716.0,730.0
718.0,736.0,722.0,737.0
731.0,733.0,734.0,741.0
745.0,739.0,737.0,741.0
746.0,742.0,736.0,740.0
736.0,733.0,732.0,735.0
729.0,713.0,730.0,740.0
745.0,698.0,730.0,735.0
757.0,689.0,729.0,739.0
753.0,692.0,731.0,738.0
745.0,705.0,726.0,733.0
731.0,702.0,726.0,728.0
740.0,701.0,719.0,716.0
721.0,717.0,711.0,712.0
706.0,724.0,709.0,711.0
721.0,719.0,710.0,709.0
726.0,722.0,713.0,716.0
724.0,735.0,719.0,725.0
728.0,743.0,727.0,732.0
740.0,756.0,735.0,739.0
749.0,766.0,740.0,744.0
745.0,768.0,743.0,752.0
735.0,757.0,740.0,748.0
713.0,751.0,737.0,742.0
719.0,747.0,733.0,737.0
722.0,741.0,728.0,734.0
731.0,728.0,725.0,733.0
744.0,718.0,715.0,723.0
744.0,708.0,713.0,719.0
738.0,701.0,709.0,714.0
743.0,703.0,705.0,704.0
729.0,696.0,703.0,706.0
718.0,703.0,710.0,709.0
721.0,724.0,718.0,718.0
715.0,732.0,725.0,727.0
732.0,751.0,735.0,734.0
741.0,747.0,738.0,740.0
730.0,748.0,744.0,749.0
730.0,739.0,742.0,749.0
730.0,721.0,739.0,740.0
735.0,722.0,738.0,737.0
741.0,721.0,735.0,741.0
716.0,718.0,730.0,733.0
712.0,719.0,724.0,728.0
727.0,732.0,719.0,720.0
727.0,718.0,715.0,714.0
725.0,715.0,710.0,713.0
727.0,719.0,707.0,707.0
715.0,725.0,708.0,717.0
700.0,731.0,712.0,722.0
714.0,741.0,718.0,726.0
734.0,740.0,722.0,730.0
765.0,736.0,737.0,747.0
762.0,736.0,746.0,752.0
735.0,743.0,748.0,744.0
740.0,736.0,745.0,738.0
747.0,733.0,738.0,737.0
741.0,737.0,736.0,731.0
731.0,738.0,726.0,716.0
733.0,716.0,722.0,706.0
723.0,702.0,725.0,738.0
718.0,705.0,725.0,729.0
709.0,711.0,721.0,716.0
708.0,724.0,710.0,713.0
723.0,735.0,705.0,711.0
717.0,732.0,705.0,713.0
727.0,731.0,709.0,715.0
723.0,734.0,717.0,721.0
724.0,739.0,726.0,727.0
739.0,748.0,733.0,739.0
750.0,748.0,736.0,742.0
748.0,749.0,741.0,755.0
729.0,746.0,742.0,758.0
726.0,743.0,741.0,749.0
730.0,744.0,740.0,740.0
729.0,744.0,738.0,733.0
728.0,740.0,733.0,730.0
725.0,733.0,724.0,724.0
726.0,727.0,719.0,711.0
728.0,721.0,717.0,711.0
729.0,718.0,718.0,719.0
728.0,722.0,712.0,720.0
718.0,729.0,715.0,719.0
713.0,722.0,720.0,721.0
725.0,710.0,722.0,726.0
750.0,716.0,734.0,734.0
763.0,715.0,736.0,739.0
758.0,728.0,741.0,747.0
747.0,750.0,744.0,748.0
753.0,758.0,738.0,746.0
727.0,754.0,736.0,742.0
727.0,749.0,732.0,739.0
737.0,728.0,728.0,738.0
718.0,700.0,726.0,729.0
719.0,694.0,724.0,722.0
717.0,711.0,716.0,709.0
715.0,731.0,708.0,701.0
718.0,728.0,708.0,713.0
723.0,734.0,709.0,704.0
725.0,735.0,712.0,709.0
732.0,743.0,720.0,726.0
719.0,744.0,725.0,728.0
716.0,744.0,736.0,738.0
723.0,739.0,743.0,748.0
735.0,738.0,747.0,754.0
758.0,742.0,745.0,757.0
740.0,745.0,741.0,754.0
720.0,745.0,737.0,743.0
739.0,736.0,734.0,741.0
739.0,730.0,732.0,735.0
720.0,730.0,724.0,726.0
704.0,730.0,720.0,730.0
715.0,727.0,716.0,722.0
716.0,726.0,712.0,719.0
723.0,725.0,711.0,711.0
726.0,727.0,713.0,708.0
728.0,728.0,717.0,713.0
731.0,733.0,722.0,719.0
728.0,741.0,728.0,722.0
735.0,745.0,736.0,733.0
749.0,739.0,741.0,741.0
744.0,719.0,743.0,739.0
739.0,692.0,738.0,734.0
745.0,677.0,732.0,732.0
732.0,682.0,730.0,730.0
734.0,700.0,727.0,720.0
760.0,729.0,725.0,711.0
758.0,739.0,724.0,713.0
729.0,735.0,720.0,718.0
708.0,719.0,716.0,711.0
713.0,712.0,710.0,705.0
714.0,717.0,706.0,707.0
720.0,717.0,708.0,712.0
730.0,716.0,715.0,725.0
732.0,726.0,726.0,738.0
736.0,763.0,737.0,747.0
736.0,765.0,739.0,745.0
743.0,759.0,743.0,749.0
739.0,747.0,744.0,754.0
743.0,732.0,744.0,754.0
760.0,724.0,741.0,744.0
763.0,725.0,737.0,730.0
763.0,725.0,731.0,717.0
716.0,721.0,726.0,725.0
718.0,723.0,724.0,724.0
712.0,723.0,723.0,726.0
734.0,731.0,716.0,724.0
736.0,726.0,712.0,716.0
720.0,721.0,711.0,714.0
736.0,721.0,714.0,715.0
746.0,725.0,722.0,719.0
751.0,728.0,725.0,730.0
754.0,754.0,738.0,745.0
741.0,758.0,745.0,748.0
729.0,750.0,746.0,744.0
742.0,744.0,744.0,740.0
733.0,742.0,739.0,741.0
720.0,731.0,737.0,737.0
715.0,725.0,737.0,736.0
720.0,730.0,732.0,736.0
719.0,730.0,726.0,727.0
713.0,729.0,722.0,727.0
711.0,724.0,720.0,727.0
707.0,719.0,715.0,722.0
714.0,720.0,710.0,715.0
712.0,718.0,713.0,718.0
722.0,717.0,714.0,714.0
728.0,722.0,722.0,724.0
734.0,744.0,733.0,738.0
742.0,751.0,739.0,742.0
748.0,749.0,745.0,750.0
738.0,745.0,746.0,749.0
736.0,736.0,745.0,744.0
741.0,739.0,739.0,738.0
761.0,749.0,735.0,741.0
753.0,743.0,735.0,743.0
714.0,738.0,732.0,735.0
707.0,741.0,724.0,724.0
709.0,737.0,719.0,718.0
717.0,726.0,715.0,714.0
712.0,724.0,712.0,707.0
712.0,725.0,708.0,706.0
720.0,724.0,710.0,713.0
728.0,726.0,716.0,709.0
731.0,720.0,719.0,718.0
738.0,723.0,732.0,729.0
745.0,733.0,738.0,736.0
733.0,745.0,741.0,742.0
732.0,740.0,743.0,739.0
730.0,730.0,736.0,737.0
732.0,724.0,736.0,741.0
733.0,723.0,735.0,744.0
740.0,708.0,734.0,738.0
730.0,694.0,730.0,730.0
724.0,682.0,730.0,729.0
729.0,711.0,725.0,725.0
727.0,754.0,717.0,720.0
721.0,748.0,713.0,713.0
741.0,735.0,716.0,712.0
751.0,722.0,718.0,721.0
764.0,726.0,723.0,728.0
738.0,728.0,727.0,723.0
712.0,734.0,738.0,746.0
726.0,724.0,745.0,761.0
736.0,719.0,746.0,752.0
743.0,741.0,741.0,735.0
747.0,755.0,737.0,730.0
738.0,752.0,739.0,744.0
722.0,735.0,737.0,740.0
723.0,727.0,731.0,727.0
718.0,739.0,721.0,712.0
720.0,744.0,722.0,722.0
716.0,739.0,722.0,721.0
721.0,728.0,716.0,713.0
722.0,725.0,711.0,711.0
718.0,732.0,711.0,717.0
718.0,731.0,718.0,730.0
730.0,726.0,724.0,733.0
738.0,727.0,734.0,728.0
755.0,728.0,737.0,728.0
757.0,731.0,737.0,745.0
738.0,725.0,748.0,758.0
734.0,738.0,748.0,752.0
732.0,735.0,741.0,747.0
736.0,730.0,737.0,737.0
737.0,735.0,732.0,737.0
731.0,734.0,730.0,730.0
718.0,732.0,725.0,723.0
717.0,729.0,722.0,721.0
722.0,725.0,718.0,717.0
722.0,724.0,712.0,707.0
715.0,713.0,712.0,704.0
724.0,719.0,714.0,709.0
735.0,723.0,720.0,722.0
735.0,727.0,724.0,727.0
741.0,749.0,735.0,741.0
733.0,755.0,739.0,748.0
733.0,755.0,743.0,748.0
737.0,755.0,742.0,745.0
733.0,748.0,741.0,739.0
732.0,744.0,737.0,736.0
730.0,732.0,736.0,730.0
732.0,718.0,730.0,726.0
729.0,708.0,724.0,722.0
726.0,710.0,721.0,721.0
720.0,717.0,718.0,716.0
729.0,719.0,713.0,711.0
721.0,708.0,711.0,711.0
724.0,699.0,712.0,714.0
744.0,686.0,717.0,720.0
719.0,684.0,722.0,733.0
723.0,711.0,726.0,723.0
751.0,735.0,737.0,731.0
749.0,749.0,749.0,759.0
735.0,762.0,750.0,756.0
722.0,778.0,744.0,746.0
736.0,762.0,740.0,739.0
734.0,755.0,741.0,733.0
728.0,747.0,742.0,738.0
746.0,741.0,740.0,738.0
724.0,733.0,731.0,727.0
714.0,734.0,725.0,716.0
721.0,730.0,722.0,717.0
711.0,726.0,717.0,726.0
709.0,724.0,715.0,715.0
714.0,726.0,717.0,713.0
719.0,730.0,721.0,725.0
725.0,734.0,728.0,729.0
731.0,742.0,737.0,738.0
734.0,742.0,741.0,744.0
740.0,744.0,745.0,747.0
755.0,741.0,747.0,746.0
740.0,735.0,744.0,743.0
735.0,737.0,742.0,739.0
732.0,733.0,737.0,739.0
730.0,721.0,736.0,735.0
730.0,727.0,730.0,729.0
727.0,712.0,726.0,724.0
728.0,710.0,723.0,719.0
732.0,712.0,718.0,717.0
728.0,714.0,715.0,713.0
744.0,723.0,712.0,712.0
738.0,747.0,716.0,711.0
713.0,745.0,723.0,719.0
718.0,736.0,727.0,730.0
748.0,728.0,738.0,739.0
755.0,729.0,743.0,738.0
755.0,736.0,744.0,738.0
734.0,741.0,744.0,747.0
723.0,745.0,741.0,748.0
728.0,743.0,740.0,739.0
733.0,721.0,734.0,733.0
736.0,701.0,732.0,726.0
730.0,694.0,725.0,718.0
728.0,698.0,722.0,716.0
722.0,704.0,716.0,708.0
720.0,720.0,709.0,703.0
727.0,722.0,709.0,711.0
743.0,734.0,711.0,715.0
740.0,740.0,715.0,728.0
725.0,745.0,724.0,739.0
708.0,752.0,732.0,744.0
725.0,752.0,741.0,741.0
730.0,751.0,742.0,739.0
748.0,753.0,742.0,738.0
753.0,752.0,740.0,730.0
752.0,745.0,733.0,721.0
737.0,740.0,730.0,725.0
711.0,738.0,735.0,735.0
717.0,728.0,732.0,725.0
720.0,716.0,723.0,709.0
724.0,711.0,719.0,713.0
724.0,706.0,715.0,721.0
724.0,709.0,713.0,729.0
720.0,724.0,714.0,725.0
722.0,718.0,721.0,726.0
721.0,716.0,727.0,730.0
721.0,723.0,731.0,736.0
738.0,759.0,740.0,748.0
752.0,759.0,745.0,750.0
747.0,758.0,749.0,750.0
736.0,759.0,748.0,751.0
734.0,743.0,743.0,742.0
733.0,735.0,742.0,741.0
735.0,730.0,740.0,736.0
730.0,718.0,738.0,740.0
728.0,724.0,733.0,729.0
725.0,719.0,725.0,723.0
720.0,713.0,724.0,723.0
713.0,716.0,717.0,713.0
719.0,725.0,711.0,706.0
726.0,725.0,710.0,705.0
733.0,728.0,712.0,710.0
727.0,730.0,721.0,721.0
721.0,742.0,725.0,726.0
739.0,747.0,736.0,744.0
754.0,749.0,740.0,746.0
736.0,745.0,749.0,760.0
732.0,742.0,751.0,763.0
726.0,738.0,745.0,749.0
731.0,731.0,744.0,739.0
729.0,723.0,742.0,733.0
728.0,715.0,735.0,731.0
731.0,710.0,729.0,725.0
731.0,707.0,726.0,718.0
725.0,719.0,722.0,719.0
709.0,725.0,718.0,715.0
707.0,716.0,712.0,710.0
735.0,708.0,711.0,709.0
745.0,709.0,716.0,710.0
711.0,703.0,721.0,721.0
731.0,709.0,727.0,730.0
739.0,738.0,743.0,746.0
736.0,745.0,748.0,744.0
742.0,741.0,746.0,736.0
752.0,747.0,740.0,731.0
752.0,749.0,739.0,740.0
737.0,738.0,739.0,738.0
733.0,735.0,734.0,736.0
730.0,735.0,730.0,731.0
725.0,722.0,724.0,731.0
727.0,705.0,721.0,726.0
720.0,695.0,719.0,721.0
713.0,710.0,715.0,716.0
712.0,721.0,713.0,716.0
721.0,732.0,715.0,715.0
727.0,737.0,721.0,729.0
723.0,737.0,725.0,724.0
741.0,743.0,734.0,734.0
750.0,732.0,742.0,739.0
766.0,729.0,749.0,742.0
755.0,733.0,749.0,746.0
740.0,740.0,745.0,745.0
718.0,746.0,744.0,748.0
722.0,742.0,741.0,741.0
721.0,735.0,737.0,733.0
725.0,732.0,733.0,730.0
721.0,735.0,726.0,723.0
716.0,732.0,721.0,719.0
719.0,716.0,716.0,712.0
725.0,708.0,710.0,707.0
731.0,708.0,710.0,707.0
733.0,700.0,714.0,708.0
726.0,710.0,720.0,716.0
750.0,712.0,728.0,732.0
762.0,731.0,738.0,744.0
724.0,742.0,741.0,746.0
731.0,743.0,744.0,753.0
737.0,738.0,742.0,753.0
747.0,735.0,739.0,744.0
745.0,730.0,735.0,736.0
741.0,740.0,731.0,730.0
748.0,747.0,730.0,724.0
738.0,735.0,722.0,713.0
715.0,731.0,719.0,705.0
705.0,736.0,719.0,710.0
717.0,736.0,716.0,703.0
719.0,719.0,714.0,698.0
721.0,712.0,716.0,705.0
724.0,720.0,719.0,710.0
705.0,713.0,728.0,724.0
714.0,724.0,730.0,723.0
725.0,739.0,740.0,734.0
735.0,743.0,750.0,759.0
748.0,740.0,753.0,762.0
736.0,735.0,749.0,752.0
729.0,725.0,741.0,744.0
727.0,723.0,740.0,742.0
724.0,737.0,737.0,739.0
726.0,745.0,733.0,731.0
722.0,743.0,728.0,727.0
716.0,735.0,729.0,736.0
722.0,732.0,722.0,726.0
727.0,734.0,716.0,714.0
730.0,731.0,712.0,714.0
705.0,728.0,717.0,720.0
716.0,730.0,721.0,722.0
726.0,736.0,726.0,729.0
733.0,745.0,737.0,738.0
740.0,743.0,743.0,743.0
743.0,744.0,744.0,743.0
745.0,743.0,742.0,737.0
744.0,723.0,738.0,730.0
740.0,711.0,739.0,732.0
737.0,724.0,735.0,724.0
734.0,730.0,730.0,721.0
725.0,729.0,728.0,723.0
716.0,728.0,726.0,725.0
712.0,725.0,723.0,724.0
723.0,716.0,715.0,722.0
715.0,705.0,715.0,721.0
721.0,693.0,717.0,717.0
728.0,692.0,717.0,719.0
729.0,700.0,724.0,729.0
737.0,728.0,726.0,737.0
742.0,756.0,738.0,747.0
748.0,743.0,746.0,752.0
746.0,732.0,749.0,751.0
733.0,737.0,746.0,749.0
729.0,733.0,741.0,743.0
730.0,727.0,740.0,738.0
727.0,727.0,737.0,732.0
732.0,744.0,732.0,734.0
733.0,730.0,728.0,729.0
729.0,721.0,728.0,728.0
720.0,725.0,723.0,721.0
720.0,730.0,715.0,710.0
710.0,730.0,708.0,704.0
720.0,730.0,711.0,708.0
731.0,738.0,716.0,716.0
737.0,733.0,722.0,723.0
741.0,730.0,728.0,729.0
733.0,732.0,737.0,741.0
741.0,736.0,742.0,744.0
749.0,739.0,746.0,752.0
748.0,738.0,746.0,747.0
728.0,743.0,744.0,740.0
734.0,739.0,741.0,735.0
717.0,744.0,736.0,731.0
724.0,739.0,732.0,727.0
729.0,728.0,724.0,717.0
730.0,725.0,722.0,711.0
728.0,725.0,717.0,707.0
726.0,718.0,714.0,707.0
723.0,717.0,713.0,704.0
731.0,727.0,714.0,712.0
736.0,728.0,720.0,718.0
733.0,736.0,727.0,725.0
715.0,746.0,742.0,748.0
726.0,747.0,745.0,747.0
736.0,746.0,748.0,747.0
738.0,740.0,749.0,745.0
735.0,732.0,745.0,744.0
732.0,721.0,742.0,745.0
733.0,727.0,739.0,738.0
732.0,735.0,732.0,731.0
731.0,734.0,728.0,733.0
718.0,719.0,723.0,727.0
716.0,720.0,719.0,728.0
715.0,708.0,716.0,716.0
715.0,715.0,712.0,708.0
716.0,698.0,711.0,706.0
720.0,685.0,713.0,704.0
725.0,703.0,719.0,713.0
726.0,720.0,725.0,718.0
738.0,734.0,739.0,732.0
736.0,716.0,746.0,747.0
740.0,731.0,748.0,752.0
747.0,752.0,745.0,757.0
737.0,744.0,745.0,754.0
739.0,750.0,741.0,741.0
732.0,752.0,739.0,737.0
732.0,735.0,738.0,740.0
726.0,734.0,727.0,727.0
724.0,732.0,722.0,721.0
729.0,721.0,717.0,715.0
729.0,716.0,711.0,712.0
707.0,717.0,709.0,704.0
710.0,723.0,714.0,711.0
720.0,726.0,718.0,715.0
737.0,729.0,723.0,716.0
755.0,736.0,727.0,720.0
760.0,727.0,739.0,731.0
741.0,724.0,746.0,741.0
757.0,750.0,748.0,742.0
752.0,757.0,744.0,740.0
736.0,760.0,742.0,744.0
729.0,753.0,739.0,746.0
719.0,743.0,735.0,738.0
717.0,736.0,731.0,730.0
719.0,729.0,724.0,722.0
719.0,727.0,722.0,719.0
715.0,724.0,718.0,711.0
717.0,723.0,712.0,707.0
715.0,720.0,707.0,701.0
722.0,718.0,711.0,708.0
720.0,723.0,716.0,723.0
724.0,737.0,721.0,720.0
736.0,748.0,734.0,728.0
742.0,744.0,738.0,736.0
739.0,742.0,750.0,750.0
738.0,743.0,752.0,752.0
741.0,738.0,748.0,754.0
738.0,732.0,746.0,750.0
735.0,730.0,740.0,743.0
729.0,722.0,736.0,737.0
727.0,718.0,732.0,728.0
721.0,716.0,728.0,722.0
721.0,708.0,725.0,722.0
729.0,708.0,717.0,718.0
728.0,724.0,713.0,715.0
728.0,730.0,714.0,717.0
730.0,732.0,718.0,721.0
712.0,732.0,725.0,723.0
722.0,732.0,727.0,722.0
738.0,733.0,737.0,731.0
745.0,725.0,745.0,741.0
746.0,726.0,749.0,751.0
733.0,730.0,751.0,748.0
729.0,751.0,744.0,747.0
729.0,753.0,741.0,741.0
727.0,742.0,734.0,730.0
729.0,735.0,732.0,732.0
721.0,730.0,727.0,735.0
713.0,711.0,726.0,730.0
714.0,689.0,720.0,716.0
712.0,701.0,714.0,707.0
714.0,713.0,711.0,712.0
719.0,738.0,714.0,719.0
714.0,732.0,718.0,720.0
722.0,708.0,723.0,722.0
734.0,706.0,729.0,727.0
760.0,705.0,740.0,740.0
739.0,720.0,745.0,745.0
735.0,760.0,748.0,753.0
743.0,771.0,745.0,747.0
733.0,757.0,742.0,740.0
740.0,745.0,737.0,734.0
734.0,736.0,732.0,728.0
730.0,735.0,728.0,723.0
732.0,722.0,724.0,721.0
734.0,710.0,722.0,717.0
726.0,707.0,714.0,709.0
727.0,714.0,711.0,711.0
707.0,721.0,713.0,712.0
726.0,733.0,719.0,723.0
712.0,733.0,722.0,722.0
722.0,734.0,725.0,726.0
735.0,746.0,737.0,739.0
744.0,743.0,739.0,741.0
750.0,746.0,744.0,743.0
728.0,743.0,745.0,742.0
725.0,744.0,742.0,740.0
730.0,747.0,739.0,741.0
724.0,742.0,737.0,734.0
723.0,737.0,732.0,732.0
734.0,723.0,728.0,729.0
729.0,701.0,725.0,721.0
722.0,694.0,719.0,716.0
719.0,696.0,716.0,713.0
718.0,708.0,710.0,708.0
722.0,722.0,713.0,712.0
734.0,738.0,718.0,714.0
746.0,749.0,725.0,725.0
728.0,724.0,731.0,723.0
719.0,711.0,739.0,735.0
731.0,727.0,746.0,754.0
736.0,740.0,748.0,758.0
736.0,756.0,747.0,750.0
734.0,761.0,744.0,741.0
730.0,748.0,740.0,735.0
738.0,732.0,736.0,732.0
742.0,723.0,732.0,727.0
742.0,707.0,724.0,719.0
736.0,695.0,724.0,720.0
729.0,719.0,718.0,713.0
728.0,731.0,714.0,709.0
708.0,733.0,711.0,706.0
724.0,734.0,712.0,710.0
720.0,716.0,720.0,721.0
721.0,708.0,724.0,725.0
730.0,722.0,732.0,728.0
730.0,737.0,742.0,738.0
734.0,757.0,747.0,738.0
736.0,760.0,750.0,744.0
730.0,748.0,747.0,746.0
729.0,742.0,742.0,740.0
738.0,741.0,742.0,740.0
739.0,733.0,740.0,751.0
743.0,729.0,732.0,734.0
732.0,731.0,724.0,721.0
717.0,726.0,722.0,718.0
711.0,720.0,716.0,714.0
716.0,708.0,710.0,708.0
724.0,706.0,710.0,708.0
727.0,715.0,714.0,711.0
731.0,713.0,717.0,718.0
721.0,714.0,722.0,721.0
737.0,720.0,733.0,729.0
743.0,734.0,740.0,745.0
745.0,753.0,745.0,755.0
739.0,758.0,744.0,748.0
727.0,759.0,743.0,751.0
724.0,755.0,741.0,756.0
726.0,742.0,738.0,744.0
726.0,731.0,738.0,741.0
728.0,720.0,731.0,736.0
727.0,716.0,726.0,721.0
719.0,719.0,723.0,713.0
719.0,710.0,717.0,715.0
719.0,714.0,715.0,704.0
721.0,723.0,715.0,708.0
721.0,728.0,719.0,717.0
715.0,731.0,724.0,726.0
727.0,731.0,727.0,731.0
747.0,738.0,740.0,744.0
749.0,735.0,745.0,748.0
735.0,744.0,748.0,750.0
738.0,749.0,747.0,744.0
740.0,732.0,741.0,740.0
742.0,714.0,735.0,730.0
741.0,703.0,732.0,723.0
725.0,684.0,732.0,734.0
725.0,687.0,724.0,724.0
725.0,721.0,722.0,729.0
720.0,713.0,719.0,722.0
716.0,710.0,714.0,710.0
718.0,726.0,707.0,706.0
725.0,721.0,710.0,715.0
729.0,725.0,717.0,715.0
742.0,712.0,722.0,721.0
738.0,718.0,731.0,736.0
733.0,744.0,741.0,744.0
738.0,761.0,746.0,757.0
725.0,764.0,749.0,753.0
745.0,755.0,743.0,747.0
738.0,745.0,742.0,740.0
737.0,733.0,740.0,739.0
744.0,709.0,737.0,735.0
734.0,729.0,731.0,724.0
737.0,733.0,723.0,713.0
735.0,733.0,717.0,709.0
711.0,736.0,715.0,713.0
710.0,723.0,714.0,716.0
711.0,717.0,713.0,708.0
712.0,730.0,715.0,711.0
721.0,739.0,723.0,721.0
719.0,735.0,728.0,725.0
729.0,738.0,740.0,737.0
732.0,747.0,744.0,741.0
733.0,744.0,749.0,749.0
731.0,738.0,749.0,748.0
728.0,728.0,743.0,742.0
729.0,721.0,740.0,744.0
731.0,727.0,738.0,740.0
726.0,733.0,731.0,736.0
723.0,738.0,728.0,734.0
721.0,740.0,722.0,720.0
720.0,730.0,719.0,712.0
721.0,721.0,715.0,719.0
727.0,718.0,708.0,711.0
727.0,716.0,710.0,707.0
728.0,709.0,716.0,709.0
732.0,712.0,721.0,718.0
720.0,712.0,728.0,723.0
724.0,728.0,738.0,737.0
739.0,749.0,739.0,738.0
748.0,756.0,741.0,737.0
740.0,753.0,743.0,742.0
732.0,744.0,741.0,745.0
732.0,739.0,738.0,741.0
731.0,735.0,736.0,735.0
729.0,735.0,735.0,732.0
726.0,728.0,726.0,720.0
720.0,722.0,724.0,718.0
717.0,725.0,720.0,713.0
718.0,724.0,717.0,714.0
714.0,724.0,716.0,712.0
715.0,725.0,717.0,713.0
723.0,726.0,723.0,718.0
726.0,730.0,725.0,720.0
735.0,737.0,733.0,730.0
740.0,740.0,744.0,747.0
734.0,741.0,748.0,751.0
745.0,744.0,750.0,753.0
746.0,743.0,745.0,750.0
735.0,739.0,740.0,748.0
726.0,736.0,741.0,744.0
727.0,732.0,736.0,738.0
728.0,729.0,732.0,731.0
724.0,725.0,725.0,722.0
722.0,723.0,723.0,721.0
720.0,721.0,719.0,713.0
721.0,719.0,711.0,707.0
719.0,717.0,709.0,705.0
720.0,719.0,717.0,717.0
725.0,722.0,720.0,719.0
729.0,728.0,725.0,727.0
739.0,734.0,735.0,741.0
742.0,732.0,743.0,744.0
742.0,739.0,748.0,749.0
734.0,747.0,749.0,749.0
733.0,734.0,745.0,743.0
734.0,724.0,740.0,742.0
735.0,726.0,739.0,740.0
731.0,743.0,735.0,733.0
728.0,737.0,729.0,723.0
721.0,729.0,724.0,721.0
718.0,725.0,722.0,721.0
715.0,721.0,718.0,716.0
712.0,722.0,713.0,708.0
715.0,723.0,712.0,709.0
719.0,724.0,717.0,711.0
725.0,728.0,720.0,711.0
729.0,730.0,727.0,726.0
735.0,738.0,740.0,748.0
735.0,740.0,745.0,751.0
737.0,740.0,748.0,747.0
734.0,739.0,746.0,742.0
733.0,732.0,741.0,741.0
734.0,728.0,738.0,737.0
731.0,722.0,734.0,733.0
730.0,707.0,731.0,729.0
723.0,694.0,724.0,721.0
718.0,698.0,723.0,720.0
716.0,718.0,720.0,719.0
727.0,731.0,713.0,711.0
732.0,726.0,710.0,707.0
734.0,730.0,714.0,712.0
722.0,729.0,717.0,717.0
711.0,729.0,724.0,722.0
719.0,740.0,733.0,731.0
741.0,741.0,741.0,742.0
747.0,746.0,746.0,747.0
741.0,743.0,746.0,748.0
735.0,741.0,744.0,739.0
731.0,744.0,741.0,734.0
731.0,743.0,740.0,740.0
727.0,742.0,737.0,734.0
726.0,736.0,730.0,729.0
722.0,729.0,725.0,723.0
715.0,726.0,724.0,722.0
716.0,722.0,719.0,717.0
717.0,722.0,714.0,711.0
717.0,720.0,712.0,710.0
721.0,723.0,715.0,714.0
723.0,728.0,723.0,723.0
726.0,730.0,727.0,727.0
735.0,742.0,739.0,737.0
737.0,741.0,742.0,740.0
739.0,744.0,747.0,743.0
739.0,745.0,748.0,749.0
737.0,740.0,742.0,740.0
734.0,736.0,740.0,736.0
732.0,735.0,736.0,734.0
730.0,732.0,734.0,734.0
725.0,727.0,729.0,728.0
721.0,724.0,726.0,723.0
720.0,723.0,724.0,722.0
718.0,721.0,716.0,715.0
718.0,719.0,711.0,709.0
717.0,721.0,715.0,710.0
721.0,724.0,718.0,715.0
725.0,727.0,725.0,721.0
728.0,732.0,729.0,727.0
736.0,738.0,740.0,737.0
739.0,741.0,746.0,745.0
740.0,743.0,748.0,749.0
739.0,742.0,747.0,744.0
735.0,739.0,743.0,738.0
733.0,736.0,739.0,736.0
729.0,733.0,737.0,731.0
729.0,732.0,732.0,729.0
724.0,725.0,726.0,722.0
721.0,724.0,722.0,716.0
720.0,722.0,719.0,716.0
716.0,723.0,714.0,711.0
717.0,719.0,710.0,707.0
720.0,718.0,712.0,711.0
722.0,723.0,717.0,715.0
728.0,727.0,722.0,720.0
733.0,741.0,732.0,732.0
736.0,744.0,739.0,740.0
739.0,744.0,744.0,746.0
741.0,746.0,745.0,746.0
739.0,742.0,740.0,741.0
736.0,737.0,739.0,740.0
732.0,736.0,736.0,737.0
732.0,732.0,732.0,733.0
728.0,729.0,729.0,725.0
724.0,725.0,722.0,718.0
721.0,724.0,718.0,717.0
719.0,722.0,715.0,715.0
719.0,721.0,711.0,707.0
718.0,720.0,711.0,702.0
721.0,723.0,716.0,713.0
725.0,723.0,722.0,721.0
727.0,729.0,726.0,724.0
737.0,737.0,737.0,736.0
739.0,736.0,740.0,740.0
741.0,737.0,745.0,747.0
743.0,736.0,745.0,748.0
737.0,731.0,743.0,742.0
732.0,735.0,740.0,737.0
732.0,736.0,737.0,734.0
729.0,737.0,734.0,730.0
725.0,730.0,726.0,723.0
722.0,725.0,723.0,720.0
720.0,722.0,720.0,718.0
718.0,719.0,716.0,712.0
716.0,723.0,712.0,705.0
717.0,725.0,711.0,708.0
721.0,724.0,715.0,712.0
725.0,729.0,723.0,718.0
728.0,727.0,729.0,729.0
735.0,730.0,741.0,741.0
740.0,736.0,746.0,745.0
740.0,739.0,747.0,746.0
740.0,743.0,744.0,742.0
739.0,743.0,740.0,738.0
735.0,740.0,737.0,733.0
732.0,736.0,732.0,728.0
729.0,732.0,730.0,728.0
725.0,729.0,726.0,725.0
722.0,726.0,723.0,724.0
720.0,724.0,719.0,716.0
719.0,723.0,714.0,709.0
718.0,718.0,711.0,708.0
719.0,721.0,715.0,713.0
723.0,724.0,720.0,719.0
727.0,728.0,725.0,722.0
734.0,741.0,734.0,732.0
737.0,742.0,740.0,739.0
740.0,743.0,746.0,748.0
742.0,743.0,747.0,747.0
739.0,740.0,744.0,741.0
736.0,739.0,742.0,738.0
734.0,735.0,739.0,739.0
729.0,733.0,736.0,731.0
727.0,729.0,731.0,730.0
723.0,725.0,724.0,723.0
721.0,722.0,720.0,720.0
719.0,721.0,718.0,714.0
717.0,720.0,715.0,708.0
716.0,721.0,713.0,707.0
721.0,723.0,717.0,713.0
723.0,728.0,723.0,718.0
728.0,731.0,727.0,723.0
736.0,738.0,736.0,734.0
738.0,740.0,743.0,740.0
741.0,743.0,749.0,745.0
740.0,745.0,747.0,744.0
739.0,741.0,742.0,739.0
736.0,736.0,739.0,734.0
733.0,735.0,735.0,728.0
732.0,731.0,732.0,730.0
727.0,726.0,726.0,724.0
723.0,725.0,723.0,720.0
723.0,723.0,718.0,717.0
720.0,721.0,712.0,711.0
720.0,719.0,711.0,705.0
719.0,720.0,715.0,706.0
722.0,723.0,721.0,713.0
727.0,728.0,730.0,719.0
730.0,733.0,736.0,722.0
738.0,739.0,746.0,734.0
741.0,742.0,751.0,741.0
742.0,741.0,752.0,747.0
740.0,741.0,747.0,742.0
736.0,739.0,742.0,736.0
735.0,735.0,735.0,733.0
732.0,733.0,731.0,728.0
730.0,730.0,727.0,728.0
725.0,725.0,719.0,724.0
721.0,722.0,716.0,719.0
719.0,721.0,712.0,712.0
718.0,721.0,708.0,705.0
719.0,718.0,706.0,707.0
721.0,720.0,712.0,714.0
722.0,724.0,716.0,714.0
728.0,730.0,720.0,721.0
736.0,738.0,731.0,733.0
737.0,742.0,737.0,737.0
741.0,744.0,741.0,743.0
742.0,746.0,744.0,743.0
740.0,741.0,737.0,739.0
737.0,737.0,733.0,737.0
735.0,737.0,730.0,733.0
732.0,732.0,727.0,729.0
729.0,729.0,725.0,722.0
724.0,725.0,719.0,717.0
722.0,722.0,717.0,714.0
721.0,720.0,715.0,709.0
721.0,719.0,712.0,706.0
718.0,718.0,713.0,704.0
722.0,722.0,716.0,708.0
724.0,726.0,721.0,714.0
728.0,729.0,725.0,720.0
738.0,737.0,734.0,736.0
739.0,737.0,739.0,742.0
742.0,740.0,744.0,744.0
742.0,739.0,745.0,743.0
738.0,738.0,741.0,739.0
735.0,736.0,737.0,740.0
732.0,734.0,736.0,736.0
730.0,733.0,732.0,734.0
726.0,726.0,725.0,724.0
722.0,724.0,721.0,721.0
722.0,722.0,719.0,717.0
718.0,722.0,716.0,711.0
717.0,722.0,708.0,706.0
721.0,722.0,709.0,708.0
722.0,725.0,714.0,714.0
728.0,731.0,720.0,723.0
731.0,733.0,727.0,729.0
736.0,739.0,738.0,739.0
740.0,742.0,744.0,744.0
742.0,744.0,747.0,746.0
741.0,742.0,742.0,742.0
738.0,737.0,740.0,739.0
736.0,735.0,736.0,736.0
732.0,732.0,732.0,734.0
729.0,729.0,731.0,730.0
726.0,725.0,722.0,723.0
723.0,722.0,718.0,721.0
721.0,720.0,714.0,717.0
720.0,719.0,712.0,716.0
716.0,718.0,711.0,710.0
720.0,722.0,714.0,713.0
724.0,725.0,721.0,718.0
726.0,729.0,728.0,724.0
735.0,737.0,738.0,737.0
737.0,738.0,744.0,740.0
740.0,741.0,748.0,743.0
741.0,741.0,750.0,745.0
737.0,740.0,744.0,737.0
736.0,737.0,739.0,736.0
734.0,734.0,739.0,733.0
730.0,732.0,734.0,730.0
728.0,728.0,731.0,728.0
724.0,724.0,724.0,719.0
721.0,721.0,720.0,716.0
719.0,721.0,714.0,710.0
719.0,721.0,709.0,705.0
720.0,720.0,708.0,706.0
721.0,723.0,712.0,711.0
726.0,727.0,717.0,716.0
728.0,730.0,721.0,722.0
737.0,738.0,732.0,734.0
738.0,741.0,737.0,741.0
742.0,743.0,741.0,748.0
744.0,743.0,742.0,749.0
740.0,738.0,740.0,743.0
736.0,735.0,738.0,738.0
733.0,732.0,736.0,736.0
730.0,728.0,734.0,731.0
724.0,725.0,723.0,724.0
723.0,723.0,719.0,722.0
722.0,720.0,716.0,718.0
720.0,717.0,711.0,713.0
718.0,716.0,709.0,707.0
718.0,720.0,712.0,707.0
721.0,722.0,715.0,711.0
724.0,729.0,723.0,717.0
729.0,732.0,729.0,724.0
737.0,739.0,740.0,737.0
741.0,742.0,745.0,743.0
741.0,741.0,748.0,745.0
740.0,740.0,742.0,737.0
738.0,737.0,738.0,731.0
735.0,735.0,735.0,732.0
729.0,732.0,734.0,733.0
730.0,730.0,730.0,728.0
724.0,724.0,724.0,720.0
722.0,723.0,719.0,717.0
719.0,721.0,713.0,713.0
718.0,721.0,708.0,711.0
717.0,719.0,704.0,708.0
720.0,720.0,707.0,712.0
724.0,727.0,711.0,716.0
727.0,729.0,718.0,722.0
735.0,738.0,729.0,733.0
737.0,739.0,735.0,736.0
740.0,741.0,740.0,742.0
742.0,743.0,743.0,743.0
741.0,738.0,743.0,737.0
736.0,735.0,742.0,734.0
735.0,734.0,740.0,734.0
731.0,730.0,736.0,733.0
727.0,728.0,731.0,727.0
723.0,723.0,725.0,722.0
721.0,720.0,721.0,719.0
720.0,717.0,717.0,716.0
718.0,717.0,714.0,710.0
717.0,719.0,713.0,710.0
720.0,721.0,717.0,713.0
724.0,726.0,724.0,717.0
727.0,730.0,726.0,722.0
737.0,736.0,736.0,730.0
739.0,739.0,742.0,736.0
741.0,742.0,743.0,739.0
740.0,742.0,740.0,735.0
739.0,739.0,733.0,730.0
736.0,734.0,727.0,729.0
732.0,732.0,725.0,725.0
731.0,729.0,720.0,721.0
725.0,724.0,712.0,711.0
723.0,721.0,715.0,716.0
721.0,721.0,717.0,723.0
717.0,719.0,718.0,723.0
718.0,719.0,715.0,722.0
719.0,719.0,718.0,723.0
721.0,723.0,721.0,725.0
726.0,726.0,726.0,730.0
729.0,731.0,731.0,734.0
736.0,737.0,741.0,743.0
740.0,741.0,748.0,749.0
742.0,742.0,750.0,752.0
742.0,739.0,747.0,748.0
737.0,735.0,744.0,740.0
735.0,734.0,741.0,735.0
731.0,729.0,738.0,729.0
727.0,729.0,734.0,725.0
724.0,724.0,725.0,720.0
722.0,719.0,718.0,718.0
719.0,718.0,714.0,713.0
717.0,718.0,709.0,707.0
717.0,719.0,705.0,702.0
722.0,722.0,710.0,712.0
723.0,725.0,717.0,722.0
727.0,728.0,723.0,729.0
735.0,735.0,735.0,740.0
735.0,738.0,740.0,743.0
740.0,741.0,744.0,746.0
740.0,743.0,744.0,744.0
740.0,738.0,738.0,742.0
736.0,734.0,736.0,740.0
733.0,734.0,734.0,737.0
731.0,729.0,731.0,733.0
727.0,726.0,728.0,727.0
723.0,722.0,723.0,721.0
721.0,720.0,720.0,718.0
719.0,718.0,713.0,713.0
718.0,716.0,710.0,708.0
718.0,719.0,711.0,709.0
721.0,722.0,713.0,714.0
724.0,726.0,718.0,720.0
728.0,730.0,720.0,722.0
736.0,736.0,730.0,731.0
738.0,740.0,734.0,735.0
741.0,741.0,736.0,739.0
740.0,742.0,738.0,740.0
736.0,739.0,735.0,738.0
734.0,734.0,733.0,734.0
731.0,732.0,729.0,726.0
730.0,730.0,724.0,722.0
724.0,723.0,719.0,717.0
721.0,722.0,719.0,722.0
720.0,720.0,719.0,724.0
717.0,720.0,716.0,721.0
717.0,719.0,711.0,717.0
720.0,719.0,716.0,720.0
721.0,723.0,720.0,724.0
727.0,726.0,725.0,730.0
729.0,729.0,735.0,734.0
735.0,737.0,748.0,743.0
740.0,741.0,753.0,748.0
742.0,742.0,754.0,750.0
741.0,739.0,746.0,745.0
737.0,735.0,741.0,740.0
734.0,734.0,737.0,735.0
731.0,730.0,732.0,732.0
728.0,728.0,728.0,726.0
723.0,723.0,718.0,718.0
722.0,720.0,713.0,716.0
720.0,719.0,707.0,710.0
720.0,718.0,704.0,706.0
718.0,718.0,703.0,702.0
719.0,722.0,708.0,710.0
724.0,723.0,714.0,722.0
725.0,728.0,721.0,728.0
735.0,738.0,733.0,745.0
737.0,738.0,736.0,753.0
739.0,740.0,740.0,757.0
740.0,739.0,742.0,751.0
736.0,737.0,740.0,742.0
733.0,736.0,737.0,737.0
733.0,733.0,736.0,729.0
728.0,730.0,733.0,729.0
727.0,726.0,729.0,727.0
722.0,721.0,726.0,720.0
720.0,719.0,723.0,715.0
717.0,717.0,719.0,707.0
715.0,717.0,711.0,699.0
718.0,720.0,706.0,700.0
721.0,722.0,710.0,706.0
724.0,728.0,718.0,712.0
727.0,730.0,721.0,721.0
733.0,737.0,732.0,733.0
737.0,739.0,740.0,745.0
739.0,742.0,745.0,754.0
738.0,741.0,744.0,752.0
735.0,738.0,738.0,749.0
733.0,734.0,735.0,747.0
731.0,732.0,734.0,746.0
729.0,730.0,731.0,745.0
724.0,724.0,724.0,731.0
721.0,721.0,723.0,724.0
719.0,720.0,718.0,719.0
717.0,719.0,712.0,712.0
716.0,718.0,709.0,709.0
719.0,719.0,712.0,712.0
721.0,722.0,716.0,716.0
726.0,727.0,719.0,721.0
730.0,732.0,727.0,729.0
735.0,737.0,734.0,736.0
738.0,739.0,737.0,738.0
740.0,742.0,739.0,735.0
739.0,741.0,737.0,732.0
736.0,735.0,737.0,733.0
733.0,733.0,737.0,733.0
731.0,730.0,735.0,733.0
728.0,727.0,732.0,732.0
723.0,722.0,726.0,726.0
720.0,720.0,722.0,721.0
719.0,718.0,713.0,716.0
720.0,719.0,704.0,712.0
718.0,716.0,703.0,712.0
719.0,722.0,709.0,715.0
724.0,724.0,714.0,721.0
726.0,727.0,719.0,723.0
734.0,737.0,730.0,738.0
737.0,738.0,736.0,744.0
739.0,739.0,741.0,747.0
742.0,740.0,738.0,747.0
738.0,736.0,735.0,739.0
734.0,734.0,733.0,732.0
733.0,731.0,730.0,729.0
729.0,729.0,731.0,726.0
727.0,726.0,729.0,727.0
723.0,721.0,725.0,732.0
721.0,720.0,721.0,737.0
717.0,717.0,715.0,732.0
715.0,717.0,711.0,721.0
716.0,718.0,709.0,719.0
718.0,719.0,713.0,721.0
724.0,725.0,719.0,723.0
726.0,727.0,722.0,727.0
733.0,735.0,736.0,739.0
737.0,736.0,742.0,744.0
739.0,740.0,746.0,746.0
739.0,742.0,744.0,743.0
737.0,737.0,738.0,741.0
733.0,732.0,737.0,739.0
731.0,729.0,735.0,739.0
728.0,726.0,735.0,736.0
722.0,723.0,727.0,725.0
721.0,721.0,724.0,725.0
720.0,719.0,721.0,721.0
719.0,717.0,719.0,714.0
716.0,715.0,718.0,710.0
717.0,718.0,720.0,709.0
720.0,721.0,722.0,714.0
723.0,726.0,727.0,717.0
730.0,732.0,725.0,725.0
736.0,736.0,729.0,736.0
739.0,740.0,734.0,740.0
740.0,741.0,738.0,737.0
737.0,739.0,734.0,727.0
735.0,734.0,731.0,725.0
733.0,731.0,732.0,724.0
731.0,730.0,728.0,719.0
728.0,727.0,724.0,714.0
723.0,722.0,718.0,711.0
720.0,720.0,715.0,715.0
717.0,719.0,716.0,716.0
718.0,718.0,713.0,713.0
716.0,716.0,711.0,711.0
719.0,721.0,714.0,714.0
724.0,723.0,719.0,719.0
726.0,727.0,723.0,725.0
734.0,736.0,734.0,738.0
736.0,738.0,736.0,743.0
740.0,740.0,739.0,749.0
741.0,738.0,740.0,752.0
737.0,736.0,736.0,745.0
732.0,733.0,736.0,743.0
732.0,732.0,737.0,743.0
728.0,729.0,735.0,741.0
725.0,725.0,727.0,734.0
722.0,721.0,719.0,730.0
719.0,718.0,712.0,723.0
717.0,716.0,705.0,715.0
714.0,717.0,700.0,714.0
715.0,718.0,701.0,713.0
718.0,720.0,708.0,716.0
722.0,726.0,716.0,719.0
727.0,728.0,721.0,727.0
733.0,735.0,734.0,741.0
736.0,738.0,741.0,746.0
738.0,739.0,741.0,747.0
737.0,740.0,738.0,742.0
735.0,736.0,732.0,740.0
733.0,732.0,731.0,736.0
730.0,730.0,727.0,732.0
728.0,727.0,725.0,732.0
722.0,721.0,722.0,724.0
720.0,718.0,721.0,723.0
718.0,716.0,719.0,722.0
717.0,716.0,713.0,718.0
716.0,712.0,711.0,713.0
715.0,716.0,714.0,718.0
720.0,721.0,717.0,726.0
723.0,725.0,723.0,727.0
729.0,731.0,731.0,733.0
734.0,737.0,738.0,739.0
738.0,739.0,743.0,743.0
741.0,740.0,746.0,740.0
737.0,737.0,743.0,733.0
733.0,734.0,738.0,728.0
732.0,731.0,735.0,729.0
728.0,729.0,731.0,727.0
727.0,727.0,728.0,728.0
722.0,721.0,721.0,719.0
719.0,718.0,719.0,718.0
717.0,717.0,715.0,718.0
716.0,717.0,712.0,713.0
714.0,718.0,707.0,714.0
719.0,719.0,712.0,725.0
722.0,725.0,718.0,734.0
726.0,727.0,722.0,735.0
733.0,735.0,735.0,744.0
735.0,735.0,739.0,746.0
738.0,738.0,742.0,748.0
738.0,740.0,742.0,748.0
736.0,736.0,738.0,744.0
734.0,731.0,737.0,740.0
731.0,731.0,733.0,737.0
728.0,728.0,730.0,734.0
724.0,723.0,724.0,727.0
722.0,719.0,720.0,723.0
718.0,718.0,717.0,720.0
716.0,716.0,710.0,715.0
717.0,714.0,705.0,711.0
716.0,716.0,708.0,712.0
720.0,719.0,712.0,716.0
724.0,722.0,719.0,723.0
726.0,724.0,724.0,725.0
734.0,732.0,734.0,737.0
737.0,735.0,740.0,743.0
740.0,737.0,743.0,745.0
741.0,737.0,741.0,744.0
734.0,733.0,739.0,740.0
731.0,730.0,735.0,735.0
729.0,727.0,732.0,733.0
728.0,726.0,729.0,729.0
722.0,720.0,720.0,723.0
719.0,719.0,719.0,721.0
718.0,717.0,712.0,718.0
716.0,715.0,707.0,714.0
713.0,716.0,706.0,709.0
716.0,719.0,709.0,712.0
720.0,721.0,715.0,718.0
723.0,726.0,721.0,724.0
730.0,732.0,730.0,733.0
736.0,735.0,736.0,738.0
739.0,739.0,740.0,738.0
739.0,740.0,743.0,735.0
736.0,738.0,737.0,728.0
734.0,735.0,736.0,731.0
732.0,732.0,735.0,731.0
729.0,729.0,729.0,726.0
728.0,726.0,727.0,725.0
721.0,720.0,723.0,716.0
719.0,717.0,721.0,712.0
717.0,718.0,719.0,711.0
715.0,717.0,709.0,710.0
716.0,714.0,704.0,710.0
719.0,719.0,710.0,711.0
722.0,722.0,714.0,721.0
726.0,725.0,720.0,729.0
733.0,734.0,731.0,747.0
735.0,735.0,735.0,759.0
739.0,738.0,740.0,760.0
741.0,738.0,742.0,758.0
736.0,735.0,741.0,750.0
732.0,732.0,736.0,744.0
730.0,730.0,734.0,739.0
726.0,727.0,732.0,731.0
724.0,723.0,723.0,724.0
720.0,719.0,720.0,723.0
718.0,716.0,718.0,720.0
716.0,714.0,713.0,714.0
713.0,714.0,709.0,708.0
716.0,715.0,708.0,706.0
718.0,719.0,712.0,710.0
723.0,724.0,716.0,716.0
727.0,726.0,721.0,722.0
734.0,733.0,733.0,733.0
735.0,736.0,741.0,740.0
740.0,739.0,742.0,744.0
738.0,739.0,742.0,744.0
735.0,733.0,739.0,744.0
731.0,730.0,738.0,742.0
730.0,728.0,733.0,740.0
727.0,726.0,731.0,735.0
721.0,721.0,723.0,726.0
719.0,718.0,718.0,723.0
719.0,717.0,715.0,719.0
718.0,716.0,709.0,715.0
716.0,713.0,708.0,711.0
717.0,716.0,711.0,712.0
721.0,721.0,714.0,718.0
725.0,724.0,719.0,723.0
732.0,731.0,728.0,730.0
735.0,736.0,733.0,733.0
740.0,737.0,736.0,735.0
742.0,738.0,738.0,737.0
738.0,735.0,735.0,735.0
734.0,734.0,732.0,732.0
732.0,731.0,729.0,729.0
728.0,727.0,728.0,724.0
727.0,726.0,724.0,727.0
722.0,720.0,720.0,732.0
718.0,717.0,722.0,734.0
716.0,716.0,721.0,727.0
714.0,716.0,716.0,718.0
714.0,716.0,712.0,714.0
719.0,718.0,716.0,718.0
722.0,723.0,719.0,723.0
727.0,726.0,723.0,730.0
734.0,733.0,735.0,740.0
736.0,734.0,740.0,748.0
739.0,735.0,744.0,752.0
740.0,739.0,744.0,749.0
737.0,733.0,739.0,744.0
733.0,730.0,739.0,740.0
731.0,729.0,738.0,738.0
728.0,724.0,735.0,735.0
723.0,720.0,728.0,726.0
720.0,718.0,723.0,724.0
719.0,716.0,719.0,721.0
717.0,714.0,711.0,715.0
716.0,712.0,708.0,712.0
715.0,714.0,709.0,710.0
718.0,719.0,711.0,714.0
722.0,723.0,718.0,721.0
726.0,728.0,722.0,728.0
733.0,734.0,735.0,739.0
737.0,737.0,741.0,746.0
739.0,738.0,745.0,746.0
737.0,736.0,743.0,741.0
733.0,733.0,738.0,736.0
732.0,731.0,733.0,733.0
729.0,728.0,731.0,729.0
728.0,727.0,725.0,727.0
723.0,720.0,718.0,719.0
720.0,717.0,714.0,717.0
718.0,716.0,712.0,720.0
715.0,714.0,709.0,712.0
715.0,713.0,706.0,707.0
717.0,714.0,710.0,712.0
719.0,719.0,714.0,716.0
725.0,723.0,718.0,721.0
732.0,730.0,729.0,733.0
735.0,735.0,735.0,740.0
736.0,737.0,741.0,745.0
739.0,740.0,743.0,748.0
738.0,736.0,739.0,744.0
734.0,731.0,738.0,742.0
732.0,730.0,735.0,741.0
730.0,726.0,734.0,738.0
726.0,724.0,731.0,728.0
722.0,719.0,724.0,719.0
719.0,716.0,719.0,715.0
718.0,715.0,713.0,707.0
718.0,713.0,708.0,701.0
715.0,714.0,707.0,696.0
719.0,719.0,710.0,698.0
722.0,722.0,714.0,709.0
725.0,727.0,716.0,720.0
734.0,733.0,728.0,734.0
736.0,736.0,736.0,744.0
738.0,738.0,745.0,749.0
738.0,737.0,748.0,752.0
733.0,736.0,743.0,752.0
732.0,732.0,739.0,751.0
730.0,728.0,736.0,747.0
728.0,727.0,731.0,744.0
722.0,722.0,723.0,735.0
720.0,718.0,720.0,728.0
718.0,716.0,718.0,721.0
715.0,715.0,713.0,713.0
714.0,715.0,707.0,712.0
717.0,716.0,708.0,716.0
718.0,719.0,713.0,718.0
725.0,723.0,717.0,726.0
727.0,727.0,723.0,729.0
733.0,734.0,734.0,740.0
738.0,736.0,741.0,746.0
740.0,738.0,746.0,746.0
740.0,736.0,743.0,745.0
735.0,732.0,739.0,741.0
733.0,729.0,735.0,738.0
729.0,727.0,733.0,736.0
727.0,725.0,729.0,731.0
722.0,721.0,720.0,724.0
721.0,718.0,718.0,720.0
718.0,716.0,714.0,716.0
718.0,713.0,709.0,711.0
714.0,714.0,706.0,706.0
718.0,717.0,709.0,714.0
721.0,720.0,715.0,721.0
724.0,725.0,722.0,726.0
731.0,732.0,734.0,739.0
735.0,735.0,738.0,743.0
737.0,737.0,742.0,747.0
738.0,738.0,745.0,746.0
735.0,738.0,740.0,738.0
733.0,734.0,735.0,735.0
731.0,731.0,734.0,733.0
729.0,729.0,729.0,729.0
728.0,725.0,726.0,726.0
722.0,720.0,720.0,717.0
718.0,717.0,718.0,716.0
716.0,715.0,713.0,710.0
716.0,716.0,707.0,704.0
716.0,714.0,706.0,712.0
718.0,718.0,713.0,723.0
722.0,722.0,719.0,728.0
726.0,725.0,723.0,729.0
733.0,733.0,733.0,737.0
736.0,735.0,738.0,738.0
738.0,738.0,742.0,740.0
741.0,739.0,739.0,740.0
738.0,734.0,736.0,736.0
732.0,731.0,734.0,732.0
731.0,730.0,728.0,734.0
729.0,726.0,725.0,733.0
723.0,721.0,719.0,727.0
720.0,720.0,719.0,729.0
718.0,717.0,715.0,727.0
718.0,714.0,711.0,727.0
716.0,713.0,711.0,722.0
715.0,716.0,715.0,717.0
720.0,719.0,720.0,717.0
722.0,723.0,726.0,722.0
726.0,728.0,729.0,727.0
733.0,733.0,738.0,742.0
738.0,737.0,744.0,750.0
739.0,736.0,744.0,754.0
738.0,736.0,742.0,746.0
733.0,734.0,738.0,740.0
732.0,731.0,734.0,739.0
728.0,727.0,733.0,734.0
726.0,726.0,729.0,730.0
721.0,719.0,723.0,723.0
719.0,718.0,722.0,723.0
717.0,716.0,718.0,717.0
716.0,716.0,712.0,711.0
714.0,715.0,710.0,707.0
718.0,718.0,711.0,712.0
720.0,722.0,716.0,713.0
726.0,726.0,720.0,719.0
732.0,733.0,731.0,731.0
735.0,735.0,737.0,736.0
737.0,738.0,742.0,741.0
738.0,740.0,744.0,748.0
737.0,738.0,741.0,746.0
735.0,733.0,738.0,744.0
732.0,732.0,736.0,740.0
729.0,727.0,729.0,735.0
727.0,723.0,726.0,730.0
721.0,719.0,717.0,722.0
718.0,716.0,713.0,719.0
717.0,714.0,710.0,718.0
718.0,715.0,705.0,715.0
717.0,715.0,708.0,713.0
719.0,720.0,712.0,716.0
724.0,722.0,720.0,724.0
726.0,725.0,726.0,729.0
734.0,732.0,735.0,740.0
736.0,736.0,740.0,745.0
739.0,737.0,745.0,751.0
738.0,737.0,748.0,749.0
733.0,735.0,743.0,742.0
731.0,732.0,737.0,738.0
730.0,729.0,735.0,734.0
728.0,728.0,729.0,730.0
723.0,720.0,720.0,724.0
719.0,719.0,719.0,718.0
718.0,717.0,717.0,711.0
715.0,716.0,713.0,702.0
715.0,716.0,707.0,699.0
717.0,717.0,708.0,704.0
719.0,722.0,713.0,710.0
724.0,725.0,720.0,714.0
728.0,728.0,726.0,721.0
734.0,733.0,737.0,736.0
738.0,738.0,742.0,747.0
740.0,739.0,742.0,751.0
738.0,736.0,739.0,755.0
735.0,732.0,738.0,755.0
732.0,730.0,736.0,749.0
730.0,727.0,733.0,743.0
727.0,726.0,729.0,735.0
721.0,721.0,722.0,728.0
719.0,720.0,721.0,728.0
718.0,717.0,718.0,725.0
718.0,716.0,713.0,717.0
715.0,714.0,710.0,709.0
717.0,719.0,712.0,714.0
721.0,722.0,717.0,722.0
724.0,725.0,722.0,726.0
732.0,734.0,733.0,739.0
734.0,735.0,737.0,744.0
738.0,738.0,742.0,747.0
739.0,738.0,744.0,746.0
736.0,738.0,739.0,738.0
734.0,734.0,736.0,735.0
732.0,732.0,737.0,732.0
728.0,729.0,731.0,729.0
726.0,725.0,725.0,725.0
721.0,720.0,720.0,719.0
719.0,718.0,717.0,716.0
717.0,716.0,715.0,711.0
716.0,717.0,708.0,708.0
717.0,716.0,709.0,710.0
719.0,719.0,715.0,716.0
723.0,723.0,722.0,726.0
727.0,725.0,728.0,735.0
733.0,734.0,738.0,744.0
736.0,737.0,743.0,749.0
739.0,738.0,747.0,749.0
741.0,738.0,745.0,749.0
736.0,734.0,743.0,743.0
732.0,731.0,739.0,738.0
730.0,729.0,734.0,737.0
727.0,727.0,730.0,732.0
723.0,722.0,720.0,721.0
721.0,719.0,719.0,718.0
719.0,717.0,713.0,711.0
717.0,715.0,709.0,706.0
714.0,715.0,706.0,701.0
717.0,718.0,706.0,705.0
720.0,719.0,709.0,714.0
724.0,726.0,716.0,725.0
729.0,729.0,723.0,736.0
735.0,735.0,733.0,744.0
737.0,737.0,736.0,748.0
740.0,741.0,738.0,746.0
739.0,739.0,738.0,742.0
736.0,734.0,738.0,734.0
733.0,731.0,737.0,727.0
730.0,728.0,737.0,725.0
727.0,725.0,735.0,726.0
723.0,721.0,725.0,720.0
719.0,719.0,720.0,722.0
718.0,716.0,716.0,722.0
718.0,715.0,711.0,722.0
715.0,714.0,710.0,722.0
717.0,718.0,713.0,724.0
722.0,720.0,718.0,727.0
724.0,725.0,722.0,724.0
732.0,733.0,731.0,734.0
735.0,735.0,734.0,738.0
738.0,738.0,738.0,745.0
739.0,738.0,742.0,746.0
736.0,736.0,738.0,739.0
735.0,734.0,736.0,736.0
732.0,731.0,735.0,733.0
729.0,729.0,731.0,733.0
727.0,724.0,729.0,736.0
722.0,718.0,724.0,735.0
719.0,716.0,721.0,727.0
715.0,715.0,715.0,717.0
715.0,716.0,707.0,711.0
719.0,715.0,705.0,711.0
719.0,719.0,711.0,713.0
724.0,724.0,719.0,719.0
727.0,726.0,724.0,722.0
733.0,734.0,736.0,734.0
737.0,737.0,741.0,745.0
739.0,739.0,743.0,755.0
741.0,739.0,741.0,755.0
738.0,733.0,737.0,752.0
733.0,730.0,736.0,746.0
731.0,728.0,733.0,741.0
728.0,726.0,731.0,733.0
723.0,721.0,724.0,720.0
722.0,720.0,722.0,716.0
719.0,717.0,718.0,712.0
718.0,716.0,710.0,708.0
717.0,714.0,709.0,704.0
716.0,716.0,711.0,706.0
720.0,719.0,713.0,716.0
724.0,721.0,722.0,727.0
729.0,726.0,727.0,738.0
735.0,733.0,737.0,748.0
739.0,738.0,743.0,752.0
741.0,739.0,745.0,753.0
738.0,736.0,743.0,745.0
733.0,733.0,739.0,741.0
732.0,730.0,736.0,739.0
729.0,729.0,733.0,734.0
728.0,729.0,728.0,729.0
723.0,723.0,723.0,725.0
719.0,719.0,720.0,721.0
717.0,718.0,715.0,718.0
716.0,717.0,711.0,712.0
713.0,717.0,708.0,708.0
718.0,719.0,710.0,714.0
721.0,722.0,718.0,718.0
724.0,726.0,721.0,724.0
734.0,734.0,733.0,737.0
735.0,736.0,737.0,743.0
738.0,738.0,743.0,747.0
738.0,740.0,746.0,745.0
735.0,738.0,740.0,740.0
735.0,734.0,737.0,739.0
732.0,732.0,735.0,736.0
729.0,730.0,731.0,732.0
726.0,725.0,727.0,725.0
721.0,721.0,719.0,719.0
719.0,718.0,716.0,716.0
715.0,717.0,710.0,709.0
717.0,718.0,703.0,704.0
718.0,717.0,703.0,707.0
720.0,720.0,708.0,708.0
726.0,724.0,712.0,715.0
729.0,728.0,718.0,726.0
736.0,734.0,731.0,744.0
737.0,738.0,741.0,752.0
739.0,740.0,749.0,755.0
739.0,739.0,748.0,752.0
737.0,734.0,743.0,745.0
732.0,732.0,739.0,740.0
731.0,729.0,735.0,739.0
727.0,727.0,733.0,734.0
722.0,721.0,724.0,724.0
721.0,718.0,721.0,720.0
719.0,716.0,717.0,714.0
718.0,713.0,713.0,707.0
715.0,715.0,710.0,703.0
716.0,717.0,710.0,708.0
720.0,720.0,716.0,715.0
724.0,726.0,722.0,725.0
729.0,729.0,727.0,736.0
734.0,736.0,738.0,747.0
739.0,739.0,741.0,752.0
739.0,741.0,747.0,752.0
737.0,740.0,742.0,746.0
735.0,736.0,738.0,741.0
732.0,732.0,737.0,737.0
730.0,730.0,731.0,729.0
728.0,726.0,729.0,726.0
724.0,722.0,721.0,717.0
719.0,719.0,719.0,715.0
718.0,716.0,715.0,714.0
718.0,714.0,709.0,713.0
718.0,710.0,708.0,714.0
721.0,711.0,712.0,719.0
725.0,715.0,716.0,724.0
728.0,720.0,723.0,728.0
735.0,730.0,735.0,738.0
735.0,730.0,740.0,744.0
739.0,733.0,743.0,747.0
742.0,737.0,742.0,750.0
737.0,737.0,740.0,746.0
733.0,736.0,738.0,740.0
733.0,735.0,734.0,738.0
729.0,728.0,732.0,733.0
725.0,721.0,726.0,728.0
722.0,715.0,721.0,723.0
721.0,716.0,718.0,719.0
719.0,715.0,713.0,715.0
716.0,717.0,712.0,707.0
717.0,720.0,711.0,710.0
720.0,724.0,713.0,717.0
722.0,727.0,720.0,722.0
727.0,731.0,724.0,726.0
734.0,736.0,736.0,738.0
736.0,739.0,741.0,744.0
739.0,741.0,745.0,746.0
738.0,743.0,742.0,743.0
735.0,740.0,738.0,740.0
732.0,735.0,736.0,736.0
730.0,735.0,732.0,735.0
728.0,731.0,729.0,731.0
722.0,724.0,723.0,724.0
721.0,723.0,720.0,719.0
719.0,721.0,716.0,718.0
717.0,720.0,711.0,712.0
718.0,717.0,707.0,711.0
718.0,719.0,710.0,713.0
723.0,721.0,712.0,718.0
728.0,721.0,720.0,725.0
732.0,725.0,727.0,731.0
738.0,730.0,736.0,741.0
740.0,731.0,743.0,745.0
743.0,729.0,744.0,746.0
740.0,730.0,741.0,740.0
734.0,729.0,739.0,732.0
732.0,732.0,735.0,730.0
728.0,730.0,733.0,726.0
726.0,730.0,730.0,725.0
722.0,728.0,722.0,719.0
719.0,724.0,719.0,714.0
717.0,722.0,715.0,714.0
716.0,721.0,711.0,711.0
715.0,722.0,706.0,709.0
719.0,724.0,710.0,717.0
722.0,728.0,716.0,722.0
726.0,730.0,723.0,729.0
735.0,737.0,736.0,740.0
734.0,738.0,739.0,742.0
739.0,742.0,742.0,743.0
740.0,748.0,743.0,747.0
740.0,747.0,738.0,749.0
737.0,739.0,737.0,752.0
733.0,732.0,735.0,745.0
731.0,720.0,731.0,739.0
725.0,712.0,727.0,732.0
722.0,710.0,723.0,728.0
720.0,714.0,719.0,723.0
719.0,715.0,712.0,714.0
719.0,710.0,709.0,708.0
718.0,709.0,710.0,710.0
720.0,713.0,714.0,716.0
724.0,718.0,720.0,723.0
727.0,726.0,724.0,726.0
736.0,739.0,734.0,739.0
738.0,742.0,740.0,742.0
739.0,742.0,745.0,742.0
741.0,746.0,742.0,739.0
734.0,744.0,741.0,734.0
732.0,741.0,734.0,726.0
730.0,739.0,732.0,722.0
727.0,734.0,730.0,716.0
722.0,726.0,722.0,712.0
722.0,725.0,721.0,721.0
718.0,722.0,719.0,729.0
715.0,720.0,715.0,724.0
714.0,721.0,711.0,717.0
718.0,721.0,712.0,721.0
722.0,724.0,717.0,724.0
727.0,729.0,722.0,731.0
730.0,732.0,730.0,737.0
736.0,738.0,738.0,743.0
739.0,741.0,743.0,745.0
740.0,744.0,745.0,746.0
740.0,741.0,739.0,746.0
736.0,736.0,738.0,746.0
733.0,734.0,735.0,746.0
731.0,729.0,731.0,742.0
729.0,726.0,728.0,738.0
724.0,720.0,720.0,730.0
720.0,716.0,717.0,721.0
720.0,715.0,714.0,715.0
719.0,715.0,710.0,712.0
717.0,715.0,711.0,704.0
720.0,720.0,715.0,710.0
723.0,723.0,719.0,717.0
726.0,730.0,723.0,720.0
736.0,740.0,733.0,735.0
737.0,742.0,739.0,747.0
739.0,742.0,745.0,755.0
740.0,743.0,747.0,755.0
736.0,741.0,742.0,749.0
734.0,741.0,737.0,741.0
733.0,734.0,734.0,734.0
729.0,729.0,731.0,729.0
727.0,722.0,726.0,726.0
721.0,720.0,723.0,722.0
720.0,721.0,717.0,718.0
718.0,719.0,712.0,712.0
717.0,719.0,707.0,709.0
720.0,718.0,708.0,711.0
722.0,717.0,714.0,714.0
726.0,720.0,720.0,728.0
727.0,720.0,727.0,736.0
734.0,730.0,738.0,743.0
740.0,734.0,743.0,747.0
741.0,736.0,744.0,749.0
741.0,737.0,742.0,747.0
738.0,738.0,739.0,744.0
734.0,736.0,736.0,740.0
733.0,731.0,732.0,742.0
727.0,730.0,732.0,736.0
723.0,726.0,723.0,725.0
722.0,726.0,721.0,723.0
720.0,725.0,718.0,719.0
718.0,723.0,712.0,714.0
715.0,722.0,710.0,709.0
716.0,723.0,711.0,711.0
721.0,724.0,714.0,719.0
725.0,729.0,723.0,726.0
732.0,738.0,730.0,734.0
738.0,743.0,740.0,745.0
740.0,742.0,744.0,748.0
741.0,739.0,747.0,749.0
737.0,737.0,744.0,743.0
735.0,740.0,739.0,740.0
734.0,740.0,736.0,736.0
730.0,734.0,732.0,733.0
728.0,727.0,727.0,730.0
723.0,721.0,722.0,723.0
721.0,718.0,720.0,720.0
719.0,717.0,714.0,713.0
718.0,719.0,710.0,707.0
716.0,721.0,709.0,713.0
721.0,728.0,714.0,716.0
724.0,734.0,718.0,721.0
729.0,734.0,721.0,725.0
737.0,733.0,733.0,736.0
737.0,735.0,738.0,745.0
741.0,741.0,745.0,751.0
739.0,742.0,746.0,752.0
738.0,737.0,739.0,745.0
735.0,735.0,738.0,739.0
734.0,730.0,733.0,734.0
732.0,722.0,730.0,737.0
727.0,717.0,725.0,727.0
723.0,714.0,722.0,724.0
722.0,715.0,719.0,720.0
720.0,717.0,711.0,710.0
721.0,720.0,706.0,708.0
718.0,725.0,711.0,717.0
721.0,727.0,713.0,719.0
726.0,731.0,719.0,723.0
728.0,734.0,726.0,729.0
736.0,740.0,737.0,740.0
741.0,738.0,742.0,745.0
742.0,736.0,745.0,749.0
741.0,733.0,744.0,748.0
737.0,737.0,739.0,741.0
735.0,741.0,735.0,735.0
732.0,736.0,734.0,735.0
729.0,736.0,732.0,735.0
725.0,729.0,723.0,727.0
723.0,726.0,720.0,723.0
721.0,722.0,716.0,719.0
718.0,718.0,712.0,713.0
716.0,716.0,708.0,710.0
719.0,718.0,710.0,714.0
723.0,723.0,716.0,718.0
727.0,727.0,720.0,724.0
733.0,735.0,729.0,733.0
740.0,741.0,735.0,737.0
741.0,742.0,739.0,741.0
742.0,744.0,741.0,743.0
742.0,736.0,735.0,739.0
737.0,728.0,735.0,742.0
736.0,729.0,733.0,734.0
734.0,729.0,729.0,730.0
730.0,726.0,727.0,729.0
726.0,723.0,723.0,728.0
721.0,729.0,721.0,731.0
719.0,731.0,715.0,730.0
718.0,727.0,710.0,721.0
717.0,723.0,709.0,717.0
724.0,724.0,714.0,720.0
729.0,726.0,719.0,722.0
731.0,727.0,726.0,720.0
740.0,732.0,735.0,731.0
742.0,738.0,739.0,734.0
745.0,740.0,744.0,741.0
743.0,738.0,744.0,742.0
737.0,735.0,740.0,739.0
736.0,735.0,737.0,736.0
739.0,726.0,735.0,734.0
737.0,721.0,733.0,728.0
736.0,713.0,725.0,717.0
729.0,710.0,721.0,715.0
720.0,709.0,720.0,722.0
712.0,713.0,716.0,720.0
710.0,717.0,712.0,713.0
717.0,726.0,709.0,712.0
721.0,732.0,713.0,718.0
724.0,738.0,720.0,729.0
726.0,736.0,724.0,735.0
734.0,740.0,735.0,748.0
736.0,745.0,742.0,754.0
739.0,747.0,744.0,750.0
740.0,740.0,740.0,745.0
738.0,720.0,735.0,740.0
736.0,705.0,734.0,736.0
738.0,708.0,732.0,734.0
739.0,720.0,728.0,730.0
732.0,718.0,722.0,727.0
732.0,722.0,718.0,726.0
724.0,726.0,717.0,725.0
712.0,727.0,712.0,722.0
714.0,718.0,711.0,713.0
723.0,719.0,714.0,714.0
729.0,722.0,715.0,719.0
732.0,725.0,722.0,726.0
739.0,734.0,731.0,736.0
744.0,741.0,734.0,736.0
747.0,740.0,739.0,743.0
745.0,739.0,745.0,754.0
732.0,747.0,747.0,752.0
736.0,751.0,740.0,742.0
742.0,733.0,735.0,740.0
737.0,713.0,733.0,734.0
732.0,714.0,729.0,732.0
726.0,711.0,723.0,727.0
724.0,719.0,718.0,720.0
728.0,719.0,713.0,712.0
721.0,705.0,708.0,708.0
714.0,686.0,709.0,714.0
723.0,695.0,713.0,716.0
730.0,707.0,718.0,720.0
724.0,722.0,723.0,728.0
730.0,730.0,733.0,733.0
734.0,732.0,735.0,733.0
738.0,729.0,738.0,738.0
743.0,740.0,739.0,742.0
748.0,747.0,735.0,739.0
744.0,752.0,738.0,748.0
738.0,740.0,734.0,744.0
734.0,724.0,732.0,735.0
742.0,730.0,723.0,726.0
752.0,736.0,721.0,725.0
733.0,725.0,718.0,722.0
709.0,716.0,712.0,714.0
710.0,728.0,710.0,710.0
723.0,731.0,710.0,709.0
731.0,723.0,715.0,716.0
730.0,728.0,722.0,722.0
715.0,745.0,725.0,728.0
721.0,757.0,736.0,743.0
736.0,749.0,743.0,750.0
737.0,741.0,746.0,750.0
735.0,735.0,745.0,748.0
734.0,734.0,737.0,740.0
733.0,729.0,733.0,740.0
733.0,730.0,733.0,734.0
733.0,732.0,730.0,733.0
726.0,720.0,725.0,726.0
721.0,707.0,723.0,723.0
717.0,714.0,718.0,719.0
712.0,728.0,711.0,709.0
716.0,736.0,706.0,712.0
724.0,739.0,710.0,715.0
725.0,739.0,716.0,721.0
726.0,734.0,723.0,730.0
732.0,736.0,731.0,735.0
732.0,733.0,738.0,742.0
729.0,728.0,743.0,751.0
737.0,727.0,741.0,743.0
748.0,729.0,736.0,732.0
743.0,744.0,737.0,737.0
736.0,747.0,739.0,750.0
732.0,744.0,736.0,744.0
727.0,740.0,729.0,733.0
717.0,731.0,723.0,727.0
718.0,730.0,719.0,724.0
719.0,727.0,713.0,720.0
721.0,724.0,710.0,716.0
726.0,724.0,707.0,714.0
724.0,730.0,710.0,719.0
732.0,735.0,716.0,724.0
737.0,740.0,720.0,729.0
743.0,743.0,732.0,745.0
742.0,744.0,737.0,749.0
733.0,742.0,743.0,746.0
729.0,742.0,746.0,739.0
733.0,742.0,741.0,740.0
736.0,741.0,738.0,740.0
738.0,738.0,735.0,732.0
741.0,723.0,730.0,727.0
740.0,718.0,724.0,723.0
735.0,715.0,722.0,719.0
722.0,712.0,718.0,716.0
721.0,713.0,713.0,710.0
723.0,723.0,709.0,709.0
723.0,725.0,712.0,719.0
725.0,733.0,716.0,726.0
721.0,738.0,719.0,724.0
720.0,744.0,724.0,728.0
726.0,751.0,734.0,739.0
734.0,756.0,739.0,747.0
737.0,756.0,743.0,750.0
738.0,743.0,741.0,745.0
732.0,735.0,739.0,742.0
732.0,732.0,735.0,739.0
733.0,727.0,731.0,735.0
733.0,726.0,730.0,729.0
730.0,728.0,726.0,732.0
731.0,724.0,722.0,725.0
728.0,720.0,718.0,719.0
708.0,722.0,715.0,714.0
704.0,731.0,711.0,707.0
713.0,732.0,712.0,704.0
717.0,728.0,717.0,708.0
722.0,730.0,723.0,728.0
730.0,734.0,737.0,753.0
732.0,735.0,742.0,747.0
746.0,743.0,743.0,747.0
755.0,749.0,743.0,747.0
755.0,738.0,737.0,743.0
754.0,727.0,732.0,740.0
735.0,722.0,733.0,741.0
731.0,720.0,728.0,740.0
725.0,712.0,726.0,734.0
737.0,724.0,719.0,726.0
739.0,732.0,714.0,723.0
735.0,736.0,710.0,720.0
734.0,722.0,708.0,716.0
733.0,701.0,709.0,712.0
734.0,710.0,711.0,707.0
757.0,725.0,716.0,713.0
761.0,734.0,727.0,731.0
721.0,737.0,738.0,750.0
706.0,747.0,743.0,747.0
718.0,759.0,748.0,741.0
728.0,763.0,746.0,741.0
728.0,751.0,741.0,739.0
729.0,736.0,739.0,738.0
736.0,728.0,736.0,735.0
735.0,726.0,732.0,728.0
733.0,715.0,723.0,717.0
720.0,705.0,721.0,716.0
725.0,717.0,720.0,718.0
738.0,727.0,714.0,711.0
738.0,710.0,710.0,710.0
736.0,711.0,710.0,711.0
705.0,705.0,717.0,720.0
704.0,723.0,721.0,724.0
727.0,732.0,728.0,730.0
731.0,746.0,737.0,740.0
737.0,759.0,739.0,744.0
736.0,764.0,744.0,747.0
740.0,758.0,742.0,738.0
740.0,747.0,734.0,731.0
740.0,741.0,730.0,723.0
738.0,728.0,724.0,711.0
738.0,725.0,724.0,717.0
750.0,717.0,718.0,717.0
738.0,696.0,720.0,718.0
740.0,687.0,715.0,711.0
742.0,717.0,707.0,702.0
719.0,736.0,704.0,698.0
715.0,753.0,711.0,713.0
718.0,756.0,719.0,727.0
741.0,744.0,724.0,738.0
744.0,738.0,734.0,749.0
743.0,725.0,739.0,757.0
753.0,734.0,744.0,759.0
729.0,741.0,743.0,753.0
729.0,730.0,740.0,746.0
740.0,732.0,737.0,747.0
736.0,745.0,737.0,741.0
731.0,748.0,736.0,732.0
716.0,747.0,732.0,734.0
697.0,739.0,726.0,727.0
712.0,734.0,721.0,720.0
716.0,723.0,716.0,708.0
714.0,715.0,711.0,698.0
715.0,707.0,712.0,700.0
724.0,718.0,718.0,715.0
730.0,728.0,722.0,726.0
728.0,736.0,727.0,738.0
727.0,742.0,738.0,756.0
728.0,740.0,741.0,751.0
735.0,745.0,743.0,750.0
733.0,760.0,742.0,749.0
731.0,763.0,739.0,747.0
732.0,751.0,739.0,745.0
731.0,741.0,738.0,743.0
726.0,736.0,732.0,739.0
723.0,729.0,726.0,728.0
721.0,723.0,725.0,723.0
718.0,714.0,723.0,719.0
708.0,711.0,714.0,711.0
711.0,725.0,710.0,709.0
719.0,733.0,711.0,711.0
724.0,730.0,717.0,720.0
733.0,733.0,725.0,727.0
734.0,739.0,727.0,728.0
743.0,740.0,736.0,741.0
746.0,747.0,743.0,749.0
741.0,753.0,745.0,752.0
737.0,746.0,746.0,752.0
731.0,736.0,742.0,743.0
727.0,739.0,737.0,738.0
729.0,741.0,735.0,734.0
727.0,732.0,731.0,731.0
724.0,722.0,725.0,724.0
722.0,721.0,720.0,719.0
715.0,718.0,715.0,716.0
713.0,718.0,712.0,712.0
719.0,719.0,707.0,708.0
728.0,717.0,713.0,712.0
722.0,710.0,718.0,718.0
728.0,713.0,723.0,724.0
739.0,732.0,735.0,737.0
733.0,738.0,741.0,741.0
729.0,740.0,745.0,746.0
743.0,749.0,746.0,742.0
751.0,754.0,737.0,733.0
744.0,743.0,736.0,734.0
728.0,748.0,734.0,736.0
724.0,741.0,732.0,739.0
732.0,738.0,728.0,729.0
729.0,737.0,724.0,721.0
719.0,732.0,719.0,723.0
710.0,729.0,712.0,714.0
718.0,731.0,707.0,714.0
723.0,726.0,709.0,710.0
729.0,723.0,718.0,722.0
732.0,726.0,725.0,733.0
725.0,723.0,728.0,730.0
730.0,728.0,738.0,741.0
735.0,730.0,744.0,745.0
744.0,728.0,746.0,746.0
743.0,730.0,745.0,743.0
738.0,743.0,742.0,740.0
737.0,764.0,739.0,743.0
722.0,752.0,738.0,744.0
723.0,735.0,733.0,740.0
726.0,724.0,724.0,729.0
727.0,720.0,721.0,724.0
729.0,708.0,718.0,723.0
726.0,705.0,713.0,718.0
719.0,703.0,709.0,715.0
718.0,725.0,711.0,714.0
733.0,731.0,714.0,714.0
760.0,722.0,719.0,723.0
766.0,718.0,728.0,735.0
730.0,721.0,738.0,747.0
729.0,744.0,744.0,748.0
725.0,753.0,744.0,745.0
729.0,750.0,740.0,741.0
734.0,749.0,739.0,744.0
731.0,748.0,737.0,741.0
728.0,744.0,735.0,731.0
730.0,742.0,734.0,732.0
735.0,737.0,726.0,724.0
734.0,740.0,722.0,721.0
724.0,731.0,717.0,716.0
722.0,726.0,711.0,711.0
708.0,726.0,707.0,700.0
727.0,734.0,710.0,704.0
721.0,736.0,722.0,733.0
724.0,740.0,728.0,734.0
731.0,746.0,735.0,739.0
729.0,743.0,738.0,748.0
731.0,747.0,745.0,755.0
733.0,739.0,747.0,751.0
743.0,732.0,744.0,743.0
737.0,727.0,738.0,738.0
736.0,739.0,737.0,733.0
732.0,738.0,732.0,726.0
730.0,727.0,727.0,723.0
735.0,730.0,723.0,715.0
738.0,738.0,720.0,721.0
733.0,727.0,715.0,716.0
713.0,727.0,710.0,714.0
700.0,729.0,710.0,713.0
712.0,731.0,715.0,713.0
731.0,739.0,720.0,715.0
730.0,735.0,726.0,721.0
727.0,740.0,736.0,732.0
731.0,741.0,743.0,735.0
740.0,743.0,744.0,736.0
742.0,744.0,742.0,736.0
743.0,738.0,739.0,739.0
744.0,730.0,736.0,742.0
739.0,725.0,731.0,742.0
734.0,716.0,729.0,732.0
743.0,709.0,722.0,722.0
732.0,702.0,721.0,727.0
715.0,721.0,719.0,732.0
710.0,736.0,716.0,727.0
720.0,728.0,711.0,718.0
720.0,730.0,713.0,722.0
728.0,721.0,719.0,725.0
728.0,726.0,726.0,731.0
721.0,737.0,729.0,734.0
734.0,750.0,738.0,740.0
744.0,747.0,746.0,743.0
751.0,748.0,748.0,745.0
734.0,745.0,743.0,734.0
735.0,741.0,740.0,740.0
732.0,735.0,740.0,748.0
727.0,735.0,737.0,741.0
727.0,727.0,729.0,731.0
726.0,705.0,723.0,722.0
733.0,697.0,716.0,716.0
729.0,701.0,711.0,706.0
726.0,695.0,709.0,702.0
732.0,706.0,706.0,706.0
718.0,708.0,710.0,709.0
741.0,715.0,715.0,716.0
744.0,745.0,723.0,728.0
746.0,775.0,738.0,739.0
710.0,765.0,740.0,745.0
729.0,756.0,744.0,747.0
740.0,757.0,744.0,746.0
741.0,746.0,741.0,746.0
745.0,746.0,741.0,747.0
734.0,738.0,737.0,744.0
729.0,722.0,736.0,739.0
725.0,713.0,731.0,732.0
715.0,714.0,725.0,723.0
717.0,718.0,721.0,718.0
728.0,707.0,716.0,712.0
724.0,687.0,713.0,708.0
711.0,702.0,713.0,707.0
729.0,727.0,715.0,712.0
723.0,736.0,722.0,717.0
722.0,732.0,725.0,720.0
737.0,743.0,736.0,735.0
743.0,739.0,742.0,747.0
756.0,734.0,749.0,753.0
739.0,756.0,750.0,751.0
723.0,770.0,741.0,741.0
738.0,759.0,736.0,738.0
723.0,745.0,733.0,736.0
720.0,742.0,730.0,732.0
725.0,731.0,724.0,723.0
725.0,727.0,724.0,725.0
726.0,736.0,719.0,718.0
722.0,731.0,714.0,715.0
717.0,721.0,707.0,710.0
726.0,717.0,709.0,716.0
735.0,720.0,717.0,732.0
729.0,723.0,723.0,737.0
726.0,730.0,730.0,731.0
735.0,743.0,741.0,744.0
732.0,751.0,746.0,754.0
732.0,755.0,745.0,749.0
736.0,744.0,738.0,739.0
730.0,723.0,736.0,732.0
738.0,722.0,734.0,737.0
737.0,725.0,733.0,732.0
731.0,751.0,730.0,724.0
723.0,747.0,724.0,719.0
711.0,733.0,720.0,717.0
716.0,724.0,717.0,713.0
715.0,719.0,716.0,713.0
717.0,720.0,713.0,710.0
726.0,726.0,716.0,715.0
720.0,735.0,722.0,726.0
726.0,741.0,727.0,738.0
736.0,743.0,738.0,744.0
739.0,743.0,743.0,747.0
740.0,748.0,747.0,751.0
741.0,741.0,748.0,747.0
739.0,729.0,742.0,739.0
738.0,720.0,738.0,738.0
736.0,717.0,737.0,740.0
742.0,719.0,732.0,732.0
744.0,729.0,728.0,726.0
734.0,725.0,725.0,730.0
718.0,730.0,721.0,724.0
713.0,738.0,716.0,716.0
717.0,729.0,711.0,710.0
715.0,724.0,711.0,710.0
720.0,722.0,714.0,712.0
726.0,718.0,717.0,726.0
723.0,719.0,725.0,734.0
724.0,729.0,739.0,741.0
731.0,743.0,745.0,746.0
739.0,750.0,747.0,746.0
747.0,746.0,744.0,746.0
745.0,734.0,739.0,743.0
736.0,723.0,736.0,739.0
727.0,724.0,733.0,739.0
735.0,729.0,731.0,734.0
729.0,730.0,725.0,723.0
730.0,721.0,721.0,720.0
721.0,727.0,716.0,714.0
726.0,751.0,710.0,709.0
730.0,735.0,709.0,709.0
734.0,715.0,714.0,711.0
707.0,716.0,720.0,716.0
718.0,731.0,726.0,720.0
733.0,743.0,730.0,728.0
741.0,754.0,738.0,739.0
743.0,751.0,744.0,744.0
746.0,735.0,745.0,746.0
750.0,734.0,744.0,743.0
735.0,739.0,739.0,740.0
722.0,746.0,736.0,733.0
730.0,755.0,733.0,726.0
736.0,744.0,729.0,725.0
727.0,729.0,723.0,720.0
725.0,724.0,721.0,715.0
725.0,720.0,718.0,718.0
717.0,716.0,715.0,718.0
715.0,726.0,711.0,714.0
714.0,727.0,715.0,718.0
724.0,727.0,717.0,726.0
730.0,719.0,721.0,728.0
734.0,710.0,735.0,739.0
739.0,713.0,740.0,743.0
739.0,735.0,744.0,746.0
729.0,747.0,743.0,739.0
729.0,744.0,740.0,739.0
729.0,730.0,739.0,735.0
736.0,733.0,738.0,738.0
739.0,727.0,736.0,738.0
730.0,725.0,731.0,731.0
721.0,728.0,726.0,725.0
715.0,730.0,721.0,718.0
726.0,718.0,713.0,715.0
735.0,711.0,710.0,716.0
735.0,716.0,713.0,715.0
744.0,727.0,716.0,714.0
743.0,728.0,723.0,725.0
716.0,733.0,728.0,733.0
712.0,748.0,738.0,740.0
725.0,760.0,745.0,750.0
733.0,751.0,747.0,750.0
738.0,752.0,746.0,747.0
737.0,749.0,742.0,740.0
734.0,733.0,738.0,738.0
731.0,728.0,735.0,731.0
731.0,724.0,728.0,723.0
725.0,707.0,720.0,719.0
725.0,709.0,723.0,730.0
729.0,726.0,718.0,720.0
728.0,720.0,714.0,712.0
728.0,713.0,711.0,716.0
716.0,726.0,713.0,720.0
712.0,724.0,716.0,722.0
712.0,733.0,723.0,729.0
729.0,742.0,733.0,737.0
734.0,735.0,740.0,743.0
745.0,752.0,743.0,748.0
748.0,767.0,745.0,745.0
746.0,750.0,741.0,743.0
734.0,744.0,737.0,736.0
733.0,742.0,734.0,734.0
734.0,725.0,731.0,728.0
730.0,720.0,731.0,734.0
727.0,716.0,724.0,726.0
718.0,714.0,719.0,719.0
713.0,720.0,716.0,715.0
709.0,719.0,713.0,712.0
715.0,720.0,710.0,709.0
720.0,729.0,712.0,713.0
725.0,741.0,718.0,715.0
732.0,738.0,721.0,724.0
737.0,737.0,733.0,736.0
744.0,731.0,737.0,738.0
759.0,735.0,743.0,739.0
745.0,742.0,747.0,743.0
741.0,744.0,745.0,742.0
740.0,740.0,741.0,744.0
725.0,737.0,739.0,744.0
719.0,736.0,735.0,739.0
726.0,743.0,727.0,726.0
720.0,739.0,723.0,726.0
719.0,725.0,723.0,723.0
720.0,718.0,716.0,716.0
717.0,711.0,710.0,710.0
716.0,711.0,711.0,712.0
720.0,717.0,714.0,715.0
726.0,713.0,718.0,724.0
730.0,694.0,723.0,726.0
739.0,701.0,734.0,734.0
743.0,713.0,742.0,741.0
752.0,753.0,745.0,744.0
753.0,791.0,742.0,744.0
731.0,777.0,741.0,742.0
713.0,756.0,739.0,739.0
720.0,743.0,737.0,731.0
723.0,730.0,736.0,731.0
727.0,707.0,727.0,731.0
725.0,710.0,724.0,723.0
718.0,714.0,722.0,721.0
714.0,723.0,718.0,718.0
710.0,746.0,714.0,714.0
718.0,733.0,714.0,718.0
727.0,722.0,718.0,725.0
731.0,731.0,722.0,728.0
739.0,733.0,732.0,734.0
728.0,728.0,740.0,745.0
737.0,736.0,746.0,750.0
743.0,745.0,746.0,748.0
744.0,746.0,742.0,745.0
735.0,749.0,737.0,743.0
726.0,748.0,737.0,745.0
724.0,742.0,734.0,735.0
726.0,735.0,730.0,733.0
722.0,729.0,725.0,726.0
720.0,729.0,721.0,718.0
719.0,720.0,716.0,711.0
721.0,711.0,711.0,707.0
739.0,706.0,708.0,705.0
750.0,719.0,713.0,705.0
751.0,723.0,718.0,716.0
720.0,733.0,728.0,734.0
715.0,749.0,740.0,746.0
735.0,742.0,742.0,746.0
740.0,736.0,745.0,745.0
741.0,739.0,745.0,745.0
740.0,727.0,739.0,738.0
738.0,720.0,735.0,733.0
729.0,725.0,736.0,738.0
721.0,724.0,736.0,738.0
725.0,729.0,729.0,730.0
722.0,723.0,725.0,729.0
717.0,728.0,721.0,724.0
717.0,730.0,713.0,715.0
718.0,728.0,710.0,706.0
723.0,725.0,709.0,705.0
722.0,718.0,713.0,710.0
720.0,719.0,721.0,720.0
726.0,721.0,725.0,725.0
737.0,739.0,734.0,736.0
729.0,750.0,742.0,743.0
740.0,746.0,742.0,744.0
737.0,751.0,740.0,739.0
744.0,755.0,736.0,737.0
747.0,745.0,738.0,745.0
746.0,730.0,737.0,741.0
733.0,711.0,735.0,732.0
729.0,696.0,728.0,724.0
728.0,713.0,724.0,723.0
711.0,729.0,720.0,720.0
715.0,736.0,714.0,711.0
718.0,747.0,711.0,711.0
721.0,726.0,715.0,715.0
719.0,720.0,719.0,721.0
726.0,728.0,723.0,724.0
737.0,726.0,731.0,730.0
748.0,723.0,737.0,742.0
744.0,715.0,743.0,745.0
731.0,724.0,746.0,754.0
728.0,738.0,742.0,749.0
732.0,750.0,738.0,741.0
735.0,738.0,734.0,741.0
734.0,729.0,732.0,732.0
744.0,725.0,728.0,727.0
745.0,715.0,725.0,725.0
747.0,721.0,722.0,716.0
733.0,724.0,720.0,717.0
713.0,732.0,716.0,711.0
705.0,735.0,712.0,710.0
705.0,740.0,717.0,719.0
717.0,746.0,723.0,721.0
717.0,745.0,725.0,725.0
728.0,747.0,736.0,736.0
736.0,745.0,741.0,742.0
739.0,737.0,745.0,745.0
740.0,738.0,747.0,744.0
741.0,739.0,741.0,741.0
736.0,732.0,738.0,740.0
727.0,733.0,736.0,741.0
729.0,722.0,732.0,736.0
724.0,717.0,727.0,730.0
718.0,723.0,723.0,726.0
722.0,730.0,717.0,716.0
721.0,714.0,710.0,711.0
714.0,696.0,709.0,711.0
710.0,703.0,712.0,709.0
716.0,720.0,715.0,708.0
727.0,733.0,721.0,714.0
733.0,742.0,725.0,715.0
739.0,757.0,735.0,730.0
737.0,758.0,744.0,741.0
737.0,750.0,748.0,750.0
743.0,750.0,747.0,756.0
741.0,741.0,741.0,749.0
730.0,723.0,738.0,740.0
730.0,715.0,734.0,734.0
738.0,710.0,731.0,728.0
740.0,717.0,722.0,722.0
732.0,727.0,722.0,735.0
718.0,722.0,719.0,723.0
721.0,734.0,715.0,716.0
714.0,732.0,712.0,710.0
711.0,729.0,716.0,714.0
717.0,737.0,720.0,717.0
721.0,738.0,726.0,725.0
731.0,744.0,735.0,737.0
733.0,746.0,741.0,742.0
746.0,748.0,744.0,743.0
739.0,747.0,748.0,750.0
729.0,741.0,745.0,744.0
729.0,728.0,741.0,741.0
731.0,715.0,738.0,741.0
733.0,720.0,734.0,736.0
730.0,724.0,730.0,736.0
735.0,717.0,725.0,727.0
730.0,721.0,721.0,723.0
722.0,724.0,714.0,713.0
719.0,722.0,710.0,712.0
718.0,722.0,711.0,718.0
702.0,722.0,715.0,719.0
719.0,723.0,718.0,724.0
733.0,718.0,724.0,730.0
735.0,722.0,736.0,742.0
739.0,732.0,742.0,748.0
736.0,758.0,746.0,746.0
742.0,764.0,744.0,742.0
738.0,746.0,739.0,738.0
736.0,738.0,736.0,731.0
739.0,733.0,732.0,727.0
743.0,718.0,729.0,725.0
735.0,706.0,722.0,720.0
728.0,687.0,719.0,717.0
722.0,675.0,723.0,725.0
716.0,693.0,721.0,727.0
717.0,727.0,715.0,715.0
708.0,759.0,714.0,711.0
728.0,759.0,717.0,720.0
721.0,755.0,723.0,728.0
720.0,742.0,727.0,728.0
736.0,746.0,740.0,736.0
738.0,750.0,745.0,742.0
745.0,749.0,747.0,744.0
748.0,747.0,744.0,741.0
747.0,741.0,738.0,737.0
730.0,734.0,738.0,735.0
730.0,725.0,733.0,738.0
730.0,707.0,731.0,734.0
721.0,702.0,726.0,728.0
722.0,720.0,721.0,720.0
725.0,730.0,714.0,714.0
729.0,737.0,711.0,709.0
734.0,730.0,710.0,709.0
732.0,708.0,713.0,713.0
721.0,711.0,718.0,719.0
712.0,704.0,727.0,735.0
725.0,696.0,736.0,738.0
737.0,707.0,739.0,740.0
736.0,733.0,743.0,743.0
739.0,754.0,743.0,746.0
745.0,761.0,744.0,742.0
739.0,769.0,739.0,734.0
726.0,748.0,737.0,738.0
726.0,740.0,735.0,733.0
720.0,737.0,729.0,728.0
720.0,725.0,723.0,724.0
721.0,714.0,720.0,721.0
728.0,705.0,716.0,718.0
731.0,704.0,711.0,713.0
737.0,695.0,708.0,712.0
723.0,706.0,713.0,713.0
712.0,719.0,719.0,713.0
719.0,715.0,725.0,718.0
733.0,741.0,736.0,733.0
734.0,762.0,740.0,739.0
735.0,767.0,745.0,743.0
737.0,769.0,745.0,747.0
739.0,751.0,739.0,744.0
742.0,740.0,737.0,745.0
738.0,739.0,735.0,745.0
738.0,742.0,734.0,742.0
719.0,730.0,727.0,728.0
722.0,728.0,725.0,724.0
711.0,725.0,722.0,719.0
704.0,719.0,715.0,714.0
717.0,715.0,711.0,710.0
725.0,709.0,715.0,710.0
744.0,708.0,716.0,716.0
739.0,716.0,723.0,724.0
730.0,734.0,727.0,725.0
717.0,732.0,737.0,737.0
732.0,712.0,745.0,748.0
743.0,731.0,750.0,754.0
743.0,739.0,743.0,746.0
733.0,730.0,741.0,743.0
717.0,733.0,740.0,743.0
723.0,739.0,735.0,734.0
747.0,743.0,729.0,721.0
735.0,743.0,723.0,720.0
722.0,743.0,722.0,719.0
715.0,730.0,721.0,717.0
715.0,733.0,717.0,713.0
717.0,727.0,711.0,709.0
722.0,713.0,714.0,714.0
729.0,711.0,720.0,718.0
726.0,719.0,724.0,723.0
736.0,723.0,734.0,738.0
740.0,722.0,739.0,744.0
732.0,734.0,742.0,746.0
739.0,741.0,744.0,752.0
738.0,717.0,741.0,751.0
743.0,724.0,739.0,742.0
752.0,751.0,738.0,742.0
739.0,745.0,733.0,736.0
721.0,744.0,730.0,727.0
716.0,728.0,723.0,720.0
717.0,708.0,719.0,717.0
713.0,706.0,716.0,714.0
720.0,707.0,711.0,706.0
723.0,714.0,710.0,703.0
729.0,727.0,713.0,711.0
731.0,731.0,721.0,720.0
734.0,739.0,725.0,719.0
729.0,751.0,735.0,731.0
735.0,749.0,740.0,739.0
740.0,748.0,745.0,743.0
741.0,745.0,746.0,746.0
736.0,736.0,742.0,741.0
736.0,724.0,737.0,737.0
733.0,716.0,736.0,735.0
734.0,695.0,732.0,736.0
733.0,684.0,722.0,726.0
731.0,713.0,717.0,714.0
734.0,731.0,718.0,719.0
732.0,731.0,718.0,715.0
710.0,742.0,715.0,712.0
714.0,739.0,714.0,711.0
735.0,733.0,718.0,716.0
717.0,738.0,724.0,724.0
718.0,741.0,729.0,731.0
728.0,740.0,740.0,742.0
726.0,745.0,746.0,746.0
749.0,749.0,747.0,749.0
751.0,744.0,744.0,748.0
746.0,737.0,742.0,743.0
734.0,736.0,737.0,740.0
716.0,727.0,733.0,732.0
726.0,719.0,728.0,728.0
729.0,711.0,721.0,723.0
734.0,698.0,720.0,726.0
736.0,687.0,716.0,720.0
726.0,709.0,711.0,711.0
717.0,725.0,708.0,709.0
700.0,732.0,711.0,715.0
705.0,728.0,714.0,720.0
714.0,726.0,720.0,723.0
723.0,725.0,733.0,730.0
736.0,723.0,741.0,736.0
748.0,738.0,746.0,742.0
747.0,752.0,747.0,741.0
752.0,756.0,744.0,743.0
736.0,756.0,741.0,744.0
725.0,743.0,739.0,740.0
720.0,734.0,733.0,735.0
740.0,723.0,727.0,732.0
741.0,699.0,722.0,721.0
726.0,687.0,721.0,720.0
724.0,724.0,718.0,715.0
718.0,734.0,711.0,708.0
705.0,735.0,710.0,712.0
715.0,746.0,717.0,720.0
722.0,731.0,724.0,728.0
725.0,721.0,730.0,734.0
730.0,724.0,740.0,743.0
734.0,728.0,744.0,744.0
748.0,735.0,744.0,746.0
756.0,732.0,742.0,747.0
747.0,710.0,743.0,744.0
736.0,713.0,739.0,739.0
726.0,725.0,736.0,737.0
727.0,749.0,733.0,732.0
728.0,755.0,724.0,722.0
713.0,737.0,721.0,719.0
718.0,732.0,717.0,718.0
717.0,729.0,713.0,714.0
716.0,726.0,710.0,710.0
719.0,725.0,710.0,716.0
720.0,721.0,716.0,722.0
723.0,727.0,724.0,725.0
721.0,734.0,728.0,730.0
729.0,743.0,738.0,736.0
735.0,731.0,747.0,749.0
744.0,741.0,749.0,749.0
742.0,734.0,746.0,742.0
736.0,708.0,742.0,743.0
740.0,707.0,737.0,739.0
730.0,707.0,733.0,732.0
731.0,710.0,729.0,735.0
734.0,706.0,724.0,729.0
751.0,714.0,720.0,719.0
760.0,729.0,713.0,710.0
749.0,724.0,710.0,703.0
724.0,724.0,712.0,713.0
685.0,722.0,718.0,718.0
705.0,726.0,721.0,722.0
729.0,741.0,724.0,719.0
745.0,755.0,735.0,731.0
742.0,757.0,738.0,736.0
734.0,755.0,744.0,742.0
734.0,751.0,744.0,751.0
731.0,744.0,744.0,749.0
729.0,741.0,742.0,743.0
730.0,735.0,736.0,737.0
729.0,730.0,735.0,733.0
725.0,721.0,731.0,728.0
718.0,711.0,724.0,724.0
716.0,717.0,721.0,722.0
715.0,722.0,715.0,714.0
713.0,727.0,711.0,711.0
718.0,731.0,710.0,709.0
726.0,734.0,714.0,713.0
726.0,732.0,720.0,724.0
719.0,725.0,726.0,730.0
725.0,733.0,736.0,741.0
730.0,734.0,741.0,743.0
748.0,743.0,743.0,741.0
752.0,753.0,745.0,748.0
739.0,752.0,739.0,745.0
731.0,732.0,738.0,743.0
721.0,714.0,736.0,738.0
726.0,717.0,731.0,733.0
721.0,718.0,723.0,723.0
709.0,725.0,723.0,725.0
717.0,739.0,723.0,726.0
719.0,733.0,715.0,715.0
719.0,727.0,710.0,712.0
719.0,723.0,714.0,712.0
717.0,725.0,717.0,716.0
725.0,729.0,723.0,725.0
729.0,732.0,727.0,728.0
735.0,733.0,737.0,735.0
738.0,732.0,742.0,739.0
741.0,733.0,744.0,745.0
737.0,735.0,742.0,745.0
738.0,732.0,740.0,739.0
736.0,737.0,734.0,729.0
735.0,738.0,732.0,737.0
732.0,726.0,731.0,735.0
725.0,721.0,726.0,731.0
720.0,729.0,724.0,724.0
727.0,711.0,719.0,713.0
727.0,702.0,717.0,709.0
719.0,705.0,713.0,712.0
721.0,715.0,716.0,719.0
724.0,715.0,721.0,724.0
720.0,703.0,724.0,727.0
730.0,704.0,738.0,739.0
732.0,728.0,744.0,743.0
739.0,744.0,745.0,746.0
740.0,742.0,746.0,742.0
739.0,759.0,738.0,734.0
738.0,758.0,737.0,737.0
736.0,752.0,738.0,742.0
732.0,750.0,732.0,738.0
724.0,737.0,729.0,729.0
722.0,728.0,724.0,722.0
717.0,725.0,719.0,719.0
721.0,724.0,714.0,712.0
722.0,730.0,709.0,715.0
719.0,722.0,712.0,716.0
721.0,722.0,713.0,716.0
726.0,722.0,719.0,722.0
725.0,719.0,726.0,727.0
732.0,716.0,736.0,741.0
740.0,717.0,741.0,737.0
745.0,732.0,743.0,742.0
741.0,749.0,742.0,745.0
736.0,757.0,742.0,743.0
732.0,751.0,741.0,740.0
731.0,739.0,740.0,741.0
726.0,735.0,736.0,737.0
722.0,730.0,725.0,725.0
721.0,725.0,721.0,721.0
720.0,725.0,719.0,721.0
717.0,721.0,717.0,719.0
714.0,722.0,712.0,712.0
719.0,726.0,712.0,711.0
723.0,726.0,717.0,716.0
727.0,732.0,723.0,721.0
731.0,728.0,729.0,729.0
746.0,736.0,738.0,733.0
753.0,737.0,744.0,743.0
755.0,738.0,748.0,749.0
730.0,740.0,744.0,744.0
735.0,741.0,740.0,742.0
726.0,738.0,738.0,738.0
726.0,737.0,734.0,734.0
727.0,733.0,732.0,731.0
724.0,727.0,724.0,721.0
719.0,724.0,721.0,720.0
718.0,723.0,716.0,716.0
718.0,721.0,711.0,715.0
715.0,719.0,711.0,714.0
717.0,722.0,715.0,715.0
722.0,723.0,720.0,721.0
723.0,725.0,725.0,724.0
731.0,736.0,736.0,737.0
736.0,741.0,740.0,740.0
741.0,745.0,746.0,747.0
740.0,743.0,745.0,746.0
735.0,738.0,744.0,746.0
731.0,737.0,741.0,743.0
731.0,733.0,737.0,736.0
728.0,730.0,731.0,731.0
726.0,727.0,726.0,726.0
722.0,722.0,724.0,723.0
720.0,720.0,721.0,725.0
717.0,710.0,715.0,713.0
715.0,702.0,710.0,706.0
718.0,706.0,708.0,707.0
720.0,719.0,713.0,711.0
724.0,735.0,721.0,720.0
728.0,742.0,727.0,728.0
735.0,743.0,738.0,740.0
739.0,743.0,744.0,746.0
741.0,744.0,746.0,748.0
740.0,745.0,744.0,746.0
737.0,739.0,740.0,745.0
734.0,736.0,737.0,736.0
734.0,731.0,735.0,735.0
730.0,729.0,733.0,735.0
724.0,724.0,724.0,723.0
721.0,722.0,721.0,721.0
721.0,721.0,718.0,721.0
720.0,726.0,712.0,715.0
718.0,725.0,710.0,711.0
719.0,721.0,712.0,711.0
722.0,718.0,717.0,719.0
725.0,726.0,725.0,724.0
730.0,732.0,730.0,731.0
736.0,737.0,739.0,741.0
738.0,743.0,745.0,746.0
742.0,742.0,747.0,749.0
739.0,741.0,745.0,742.0
735.0,738.0,740.0,736.0
734.0,734.0,738.0,735.0
729.0,734.0,736.0,736.0
728.0,733.0,732.0,731.0
724.0,726.0,725.0,724.0
720.0,723.0,723.0,720.0
718.0,722.0,718.0,717.0
716.0,721.0,714.0,710.0
717.0,716.0,710.0,709.0
721.0,714.0,715.0,713.0
726.0,716.0,720.0,718.0
729.0,719.0,724.0,726.0
734.0,729.0,736.0,736.0
736.0,736.0,740.0,741.0
740.0,746.0,744.0,747.0
741.0,753.0,745.0,745.0
739.0,746.0,740.0,739.0
736.0,740.0,737.0,737.0
732.0,735.0,737.0,738.0
730.0,731.0,732.0,732.0
726.0,728.0,729.0,727.0
724.0,727.0,722.0,721.0
721.0,725.0,720.0,721.0
717.0,723.0,714.0,715.0
718.0,724.0,710.0,711.0
718.0,721.0,712.0,710.0
721.0,723.0,714.0,716.0
725.0,727.0,723.0,723.0
727.0,730.0,727.0,727.0
735.0,739.0,737.0,739.0
738.0,741.0,743.0,745.0
742.0,742.0,748.0,747.0
741.0,741.0,745.0,743.0
737.0,739.0,741.0,736.0
734.0,736.0,738.0,737.0
731.0,733.0,735.0,735.0
729.0,730.0,730.0,728.0
724.0,725.0,724.0,723.0
722.0,722.0,722.0,721.0
719.0,722.0,717.0,714.0
718.0,721.0,713.0,711.0
718.0,720.0,708.0,707.0
720.0,721.0,712.0,714.0
722.0,725.0,716.0,717.0
728.0,728.0,721.0,722.0
732.0,734.0,729.0,730.0
738.0,739.0,738.0,740.0
740.0,742.0,744.0,746.0
742.0,744.0,745.0,749.0
